 # inv_tmp, energy, phys_var, phys_doublon, phys_num, step_i
0.0155325753650025  7.2383521082836335 97.6975336033334543 1.9420778932068359 7.9999999999999982 1
0.0308969708930186  6.5374706844214208 87.5205585223019256 1.9063096615927746 8.0000000000000018 2
0.0461003326906343  5.8490954444033845 78.2995721611902127 1.8712053668991047 8.0000000000000000 3
0.0611506720484083  5.1755996783319347 70.0271247145788180 1.8369059890586528 8.0000000000000036 4
0.0760566213479917  4.5190083024367897 62.6819444927023710 1.8035322650850236 8.0000000000000036 5
0.0908272075640609  3.8809981960929361 56.2311966206295466 1.7711841690925230 7.9999999999999964 6
0.1054716496799530  3.2629086348595986 50.6328302603527618 1.7399411674811458 8.0000000000000036 7
0.1199991834310568  2.6657593616669284 45.8378739664667307 1.7098631118976637 8.0000000000000000 8
0.1344189144989937  2.0902740727403164 41.7925745970859595 1.6809916220208998 7.9999999999999991 9
0.1487396996142045  1.5369074169488011 38.4403104279667787 1.6533518119290538 7.9999999999999991 10
0.1629700539049926  1.0058739452498742 35.7232402244208984 1.6269542244494928 8.0000000000000018 11
0.1771180821411784  0.4971777592423687 33.5836752040087561 1.6017968544500083 8.0000000000000000 12
0.1911914311456906  0.0106418776287784 31.9651796163749182 1.5778671619715197 8.0000000000000036 13
0.2051972604939442  -0.4540634343718923 30.8134185107751435 1.5551439973811889 8.0000000000000000 14
0.2191422286205921  -0.8973939383447422 30.0767790698656299 1.5335993817387439 8.0000000000000018 15
0.2330324915599389  -1.3199067039507628 29.7067957386282018 1.5132001051053248 8.0000000000000000 16
0.2468737117286761  -1.7222376652534428 29.6584103152903111 1.4939091227276498 8.0000000000000000 17
0.2606710743949749  -2.1050815997019807 29.8900971051787288 1.4756867433742289 8.0000000000000000 18
0.2744293097479181  -2.4691745750684477 30.3638809022695000 1.4584916153580576 8.0000000000000000 19
0.2881527187694081  -2.8152788244544533 31.0452725172602264 1.4422815239823163 8.0000000000000000 20
0.3018452014022688  -3.1441699416868860 31.9031432236304084 1.4270140195262364 8.0000000000000000 21
0.3155102857904062  -3.4566262388962139 32.9095561280747901 1.4126468978221998 8.0000000000000036 22
0.3291511576292889  -3.7534200739714674 34.0395692751562535 1.3991385564156078 8.0000000000000000 23
0.3427706889002540  -4.0353109363092869 35.2710223806676169 1.3864482487215253 8.0000000000000000 24
0.3563714654658812  -4.3030400726260245 36.5843165126341958 1.3745362569504309 7.9999999999999991 25
0.3699558131743106  -4.5573264380613052 37.9621938233567846 1.3633640022711315 7.9999999999999982 26
0.3835258222585890  -4.7988637687893636 39.3895225743923518 1.3528941080443180 8.0000000000000000 27
0.3970833699252876  -5.0283185884530042 40.8530911660348792 1.3430904292527024 7.9999999999999982 28
0.4106301411081598  -5.2463289798369264 42.3414136509968415 1.3339180586582613 7.9999999999999991 29
0.4241676474214803  -5.4535039735836381 43.8445482412517222 1.3253433178549068 8.0000000000000000 30
0.4376972443879770  -5.6504234261134583 45.3539295690278550 1.3173337393240840 8.0000000000000000 31
0.4512201470417965  -5.8376382783095897 46.8622149008592572 1.3098580438684577 7.9999999999999991 32
0.4647374440211980  -6.0156711043699458 48.3631440935045305 1.3028861163924945 8.0000000000000018 33
0.4782501102715878  -6.1850168761786257 49.8514127923650676 1.2963889818959413 8.0000000000000018 34
0.4917590184795513  -6.3461438824853840 51.3225581808089402 1.2903387827129011 7.9999999999999982 35
0.5052649493546175  -6.4994947541219315 52.7728564706724725 1.2847087574257694 8.0000000000000000 36
0.5187686008690976  -6.6454875565466871 54.1992312621138552 1.2794732214690880 7.9999999999999982 37
0.5322705965585712  -6.7845169193691071 55.5991718803131363 1.2746075491747944 8.0000000000000000 38
0.5457714929772245  -6.9169551793629660 56.9706608056092065 1.2700881568624380 8.0000000000000000 39
0.5592717863938185  -7.0431535190422867 58.3121093434251705 1.2658924865157037 7.9999999999999982 40
0.5727719188059169  -7.1634430873445201 59.6223007237400253 1.2619989895847672 8.0000000000000000 41
0.5862722833423432  -7.2781360925256440 60.9003398716056381 1.2583871104924371 8.0000000000000036 42
0.5997732291167671  -7.3875268601844306 62.1456091463369589 1.2550372694847711 7.9999999999999982 43
0.6132750655888831  -7.4918928515380543 63.3577294046494188 1.2519308445419615 7.9999999999999973 44
0.6267780664838265  -7.5914956387874524 64.5365258001472455 1.2490501521439743 8.0000000000000000 45
0.6402824733152506  -7.6865818357372575 65.6819977867886706 1.2463784267617393 7.9999999999999982 46
0.6537884985528134  -7.7773839828518163 66.7942928463583883 1.2438997990145582 7.9999999999999982 47
0.6672963284706360  -7.8641213867017834 67.8736835090155921 1.2415992724955818 7.9999999999999982 48
0.6808061257095570  -7.9470009143372398 68.9205472813786599 1.2394626993185938 8.0000000000000000 49
0.6943180315826578  -8.0262177435544650 69.9353491382525618 1.2374767544806553 8.0000000000000018 50
0.7078321681505324  -8.1019560703378275 70.9186262720461116 1.2356289091668091 8.0000000000000000 51
0.7213486400900814  -8.1743897749811545 71.8709748282889933 1.2339074031457766 8.0000000000000000 52
0.7348675363781875  -8.2436830485444901 72.7930383866261650 1.2323012164203153 8.0000000000000000 53
0.7483889318094454  -8.3099909813991175 73.6854979744654912 1.2308000403038450 7.9999999999999991 54
0.7619128883651615  -8.3734601156666386 74.5490634253129798 1.2293942480970275 8.0000000000000000 55
0.7754394564490503  -8.4342289633786027 75.3844659159994279 1.2280748655354314 7.9999999999999982 56
0.7889686760034751  -8.4924284921774031 76.1924515367192043 1.2268335411730762 8.0000000000000036 57
0.8025005775186129  -8.5481825803540232 76.9737757652950449 1.2256625168574973 7.9999999999999973 58
0.8160351829456441  -8.6016084429780495 77.7291987325820486 1.2245545984407640 8.0000000000000000 59
0.8295725065238773  -8.6528170308234422 78.4594811796176543 1.2235031268582404 8.0000000000000000 60
0.8431125555306691  -8.7019134037343093 79.1653810192240570 1.2225019496934686 8.0000000000000000 61
0.8566553309620526  -8.7489970800086532 79.8476504254276307 1.2215453933337155 7.9999999999999964 62
0.8702008281511265  -8.7941623633088106 80.5070333834516418 1.2206282358069405 8.0000000000000000 63
0.8837490373304968  -8.8374986485350639 81.1442636412984086 1.2197456803774196 8.0000000000000018 64
0.8972999441443790  -8.8790907080258332 81.7600630111999749 1.2188933299643194 7.9999999999999973 65
0.9108535301153516  -8.9190189593746787 82.3551399755936444 1.2180671624352177 8.0000000000000000 66
0.9244097730702115  -8.9573597160815730 82.9301885578781111 1.2172635068150903 7.9999999999999982 67
0.9379686475288896  -8.9941854221851045 83.4858874231219374 1.2164790204407381 8.0000000000000000 68
0.9515301250599559  -9.0295648719525445 84.0228991782024082 1.2157106670809186 8.0000000000000000 69
0.9650941746058598  -9.0635634156380487 84.5418698446351300 1.2149556960337691 7.9999999999999982 70
0.9786607627807047  -9.0962431522545231 85.0434284806660088 1.2142116222052786 8.0000000000000000 71
0.9922298541430626  -9.1276631102430379 85.5281869321027841 1.2134762071656862 7.9999999999999991 72
1.0058014114460616  -9.1578794168649615 85.9967396939100155 1.2127474411746630 8.0000000000000000 73
1.0193753958667415  -9.1869454570859634 86.4496638668216519 1.2120235261609020 8.0000000000000018 74
1.0329517672164734  -9.2149120226683454 86.8875191951850070 1.2113028596373134 8.0000000000000018 75
1.0465304841340459  -9.2418274521384429 87.3108481739647715 1.2105840195292856 8.0000000000000000 76
1.0601115042628584  -9.2677377622487978 87.7201762143410662 1.2098657498903767 8.0000000000000018 77
1.0736947844135289  -9.2926867715110735 88.1160118586568615 1.2091469474773227 8.0000000000000018 78
1.0872802807130852  -9.3167162163345765 88.4988470366296838 1.2084266491542943 7.9999999999999982 79
1.1008679487417978  -9.3398658602668370 88.8691573557595405 1.2077040200948608 8.0000000000000000 80
1.1144577436586283  -9.3621735967968291 89.2274024197589455 1.2069783427490681 8.0000000000000000 81
1.1280496203161559  -9.3836755461484849 89.5740261696180511 1.2062490065423987 8.0000000000000036 82
1.1416435333657908  -9.4044061464607900 89.9094572426050860 1.2055154982730123 8.0000000000000018 83
1.1552394373539934  -9.4243982397224162 90.2341093451126994 1.2047773931736590 7.9999999999999991 84
1.1688372868101760  -9.4436831528020093 90.5483816357923956 1.2040343466048284 7.9999999999999991 85
1.1824370363268919  -9.4622907738907749 90.8526591158896224 1.2032860863461377 7.9999999999999982 86
1.1960386406328811  -9.4802496246511829 91.1473130241064808 1.2025324054535373 8.0000000000000000 87
1.2096420546594882  -9.4975869283444041 91.4327012336808593 1.2017731556506670 8.0000000000000000 88
1.2232472336009350  -9.5143286741899011 91.7091686496932113 1.2010082412235472 8.0000000000000000 89
1.2368541329688911  -9.5304996781922817 91.9770476048936558 1.2002376133887560 8.0000000000000000 90
1.2504627086417539  -9.5461236406541374 92.2366582525888106 1.1994612651062675 8.0000000000000018 91
1.2640729169090212  -9.5612232005782190 92.4883089553494244 1.1986792263092314 8.0000000000000000 92
1.2776847145111097  -9.5758199871480816 92.7322966684893402 1.1978915595240882 8.0000000000000000 93
1.2912980586749545  -9.5899346684632061 92.9689073174371572 1.1970983558555739 8.0000000000000000 94
1.3049129071456922  -9.6035869976927799 93.1984161682703842 1.1962997313123411 8.0000000000000000 95
1.3185292182147192  -9.6167958568008594 93.4210881908124122 1.1954958234500901 8.0000000000000000 96
1.3321469507443913  -9.6295792979855790 93.6371784138076464 1.1946867883102545 8.0000000000000018 97
1.3457660641896145  -9.6419545829654361 93.8469322717901946 1.1938727976334520 8.0000000000000000 98
1.3593865186165643  -9.6539382202368991 94.0505859433505265 1.1930540363280198 7.9999999999999964 99
1.3730082747187449  -9.6655460004195426 94.2483666805806308 1.1922307001750712 8.0000000000000000 100
1.3866312938305991  -9.6767930297971319 94.4404931295454020 1.1914029937525439 7.9999999999999982 101
1.4002555379388568  -9.6876937621565737 94.6271756416877423 1.1905711285618037 7.9999999999999982 102
1.4138809696917993  -9.6982620290195438 94.8086165761232280 1.1897353213412900 8.0000000000000000 103
1.4275075524066054  -9.7085110683562537 94.9850105928267539 1.1888957925527235 8.0000000000000036 104
1.4411352500749386  -9.7184535518648101 95.1565449367495262 1.1880527650262493 8.0000000000000000 105
1.4547640273669140  -9.7281016108946723 95.3233997129377855 1.1872064627518224 8.0000000000000018 106
1.4683938496335867  -9.7374668610878334 95.4857481527528478 1.1863571098049359 7.9999999999999991 107
1.4820246829080814  -9.7465604258069174 95.6437568713150199 1.1855049293956199 8.0000000000000000 108
1.4956564939054879  -9.7553929584152606 95.7975861163134255 1.1846501430303755 8.0000000000000018 109
1.5092892500216255  -9.7639746634700799 95.9473900083417135 1.1837929697774410 8.0000000000000000 110
1.5229229193307829  -9.7723153168863774 96.0933167729308479 1.1829336256264420 7.9999999999999964 111
1.5365574705825249  -9.7804242851256831 96.2355089644641737 1.1820723229341488 7.9999999999999982 112
1.5501928731976593  -9.7883105434607280 96.3741036821645025 1.1812092699486210 8.0000000000000000 113
1.5638290972634412  -9.7959826933641949 96.5092327783553685 1.1803446704046374 7.9999999999999982 114
1.5774661135280912  -9.8034489790668964 96.6410230591980053 1.1794787231838035 7.9999999999999982 115
1.5911038933947046  -9.8107173033281256 96.7695964781122342 1.1786116220332343 8.0000000000000000 116
1.6047424089146063  -9.8177952424587023 96.8950703220913141 1.1777435553371958 8.0000000000000000 117
1.6183816327802230  -9.8246900606347438 97.0175573911206470 1.1768747059365041 8.0000000000000000 118
1.6320215383175209  -9.8314087235382281 97.1371661709114278 1.1760052509908996 8.0000000000000000 119
1.6456620994780666  -9.8379579113584228 97.2540009991582366 1.1751353618799991 8.0000000000000018 120
1.6593032908307537  -9.8443440311863082 97.3681622255287493 1.1742652041387716 8.0000000000000000 121
1.6729450875532446  -9.8505732288324559 97.4797463655913674 1.1733949374238282 8.0000000000000000 122
1.6865874654231647  -9.8566514000971654 97.5888462488833284 1.1725247155071161 8.0000000000000000 123
1.7002304008090896  -9.8625842015200291 97.6955511613181358 1.1716546862938901 7.9999999999999982 124
1.7138738706613534  -9.8683770606348133 97.7999469821290148 1.1707849918621196 8.0000000000000000 125
1.7275178525027213  -9.8740351857539110 97.9021163155394731 1.1699157685207000 8.0000000000000000 126
1.7411623244189418  -9.8795635753056672 98.0021386173480664 1.1690471468841115 8.0000000000000000 127
1.7548072650492181  -9.8849670267462812 98.1000903166110021 1.1681792519613319 7.9999999999999982 128
1.7684526535766127  -9.8902501450672631 98.1960449326002873 1.1673122032570504 8.0000000000000000 129
1.7820984697184143  -9.8954173509178034 98.2900731872106519 1.1664461148833665 8.0000000000000000 130
1.7957446937164836  -9.9004728883610333 98.3822431129848525 1.1655810956803676 8.0000000000000000 131
1.8093913063275979  -9.9054208322816280 98.4726201569200441 1.1647172493440956 7.9999999999999982 132
1.8230382888138121  -9.9102650954615967 98.5612672802146221 1.1638546745605809 8.0000000000000036 133
1.8366856229328472  -9.9150094353401403 98.6482450541090543 1.1629934651447291 8.0000000000000036 134
1.8503332909285277  -9.9196574604727239 98.7336117519704715 1.1621337101829985 8.0000000000000000 135
1.8639812755212706  -9.9242126367036576 98.8174234377641199 1.1612754941788754 8.0000000000000000 136
1.8776295598986457  -9.9286782930657100 98.8997340510515528 1.1604188972002889 8.0000000000000000 137
1.8912781277060116  -9.9330576274197995 98.9805954886505788 1.1595639950281857 8.0000000000000000 138
1.9049269630372396  -9.9373537118469102 99.0600576830861996 1.1587108593055664 7.9999999999999982 139
1.9185760504255320  -9.9415694978039468 99.1381686779583617 1.1578595576863744 7.9999999999999982 140
1.9322253748343390  -9.9457078210545156 99.2149747003473692 1.1570101539836888 7.9999999999999982 141
1.9458749216483882  -9.9497714063852118 99.2905202303737155 1.1561627083167407 8.0000000000000000 142
1.9595246766648233  -9.9537628721173270 99.3648480680242585 1.1553172772563383 8.0000000000000018 143
1.9731746260844620  -9.9576847344235659 99.4379993973530816 1.1544739139683249 7.9999999999999964 144
1.9868247565031751  -9.9615394114586859 99.5100138481620320 1.1536326683547649 8.0000000000000000 145
2.0004750549033927  -9.9653292273126368 99.5809295552586775 1.1527935871925639 7.9999999999999982 146
2.0141255086457344  -9.9690564157945190 99.6507832153919111 1.1519567142693190 8.0000000000000000 147
2.0277761054607750  -9.9727231240548733 99.7196101419534102 1.1511220905161730 8.0000000000000000 148
2.0414268334409393  -9.9763314160538918 99.7874443175386432 1.1502897541375323 8.0000000000000018 149
2.0550776810325311  -9.9798832758824219 99.8543184444490777 1.1494597407375002 8.0000000000000018 150
2.0687286370278977  -9.9833806109425307 99.9202639932211412 1.1486320834429298 8.0000000000000000 151
2.0823796905577323  -9.9868252549939438 99.9853112492584444 1.1478068130230061 8.0000000000000036 152
2.0960308310835063  -9.9902189710724052 100.0494893576452853 1.1469839580052987 8.0000000000000018 153
2.1096820483900478  -9.9935634542857610 100.1128263662131985 1.1461635447882497 8.0000000000000000 154
2.1233333325782451  -9.9968603344931743 100.1753492669309935 1.1453455977500655 8.0000000000000000 155
2.1369846740578962  -10.0001111788727624 100.2370840356854558 1.1445301393540044 8.0000000000000000 156
2.1506360635406865  -10.0033174943825802 100.2980556705176554 1.1437171902500740 8.0000000000000000 157
2.1642874920333055  -10.0064807301197369 100.3582882283765230 1.1429067693731441 7.9999999999999991 158
2.1779389508306948  -10.0096022795820758 100.4178048604487827 1.1420988940375123 7.9999999999999982 159
2.1915904315094288  -10.0126834828368168 100.4766278461232929 1.1412935800279547 8.0000000000000000 160
2.2052419259212295  -10.0157256286001424 100.5347786256438383 1.1404908416873070 8.0000000000000000 161
2.2188934261866060  -10.0187299562317857 100.5922778315031394 1.1396906920006336 8.0000000000000000 162
2.2325449246886304  -10.0216976576481471 100.6491453186283991 1.1388931426760394 7.9999999999999973 163
2.2461964140668296  -10.0246298791576809 100.7054001934072858 1.1380982042221870 7.9999999999999982 164
2.2598478872112158  -10.0275277232217856 100.7610608415995301 1.1373058860225902 8.0000000000000018 165
2.2734993372564296  -10.0303922501444980 100.8161449551801496 1.1365161964067549 8.0000000000000000 166
2.2871507575760108  -10.0332244796940895 100.8706695581558961 1.1357291427182452 8.0000000000000000 167
2.3008021417767868  -10.0360253926594130 100.9246510313965217 1.1349447313797434 8.0000000000000000 168
2.3144534836933808  -10.0387959323438807 100.9781051365193889 1.1341629679551923 8.0000000000000018 169
2.3281047773828347  -10.0415370059997002 101.0310470388659070 1.1333838572090935 8.0000000000000000 170
2.3417560171193501  -10.0442494862049720 101.0834913296056072 1.1326074031630520 8.0000000000000018 171
2.3554071973891326  -10.0469342121859757 101.1354520470019622 1.1318336091496333 7.9999999999999991 172
2.3690583128853597  -10.0495919910871230 101.1869426968746950 1.1310624778636353 7.9999999999999982 173
2.3827093585032451  -10.0522235991906328 101.2379762722879661 1.1302940114108377 8.0000000000000036 174
2.3963603293352156  -10.0548297830881737 101.2885652724977774 1.1295282113543217 8.0000000000000000 175
2.4100112206661914  -10.0574112608064326 101.3387217211858626 1.1287650787584456 8.0000000000000000 176
2.4236620279689673  -10.0599687228885450 101.3884571840090558 1.1280046142305391 8.0000000000000000 177
2.4373127468996971  -10.0625028334332622 101.4377827854910663 1.1272468179604120 8.0000000000000000 178
2.4509633732934710  -10.0650142310935848 101.4867092252823397 1.1264916897577519 8.0000000000000000 179
2.4646139031599965  -10.0675035300365536 101.5352467938125471 1.1257392290874781 8.0000000000000000 180
2.4782643326793674  -10.0699713208658643 101.5834053873605569 1.1249894351031444 8.0000000000000000 181
2.4919146581979281  -10.0724181715087315 101.6311945225631774 1.1242423066784470 7.9999999999999982 182
2.5055648762242280  -10.0748446280685773 101.6786233503859762 1.1234978424369237 8.0000000000000000 183
2.5192149834250652  -10.0772512156449121 101.7257006695759856 1.1227560407799078 8.0000000000000000 184
2.5328649766216151  -10.0796384391217160 101.7724349396176251 1.1220168999128073 7.9999999999999991 185
2.5465148527856436  -10.0820067839257153 101.8188342932103581 1.1212804178697808 8.0000000000000018 186
2.5601646090358070  -10.0843567167556127 101.8649065482861289 1.1205465925368689 8.0000000000000036 187
2.5738142426340271  -10.0866886862836242 101.9106592195863357 1.1198154216736527 8.0000000000000018 188
2.5874637509819509  -10.0890031238303486 101.9560995298132013 1.1190869029334960 7.9999999999999991 189
2.6011131316174834  -10.0913004440140401 102.0012344203731232 1.1183610338824335 7.9999999999999982 190
2.6147623822114010  -10.0935810453753589 102.0460705617275039 1.1176378120167643 7.9999999999999982 191
2.6284115005640327  -10.0958453109785857 102.0906143633658445 1.1169172347794067 7.9999999999999964 192
2.6420604846020201  -10.0980936089901991 102.1348719834162466 1.1161992995750731 8.0000000000000018 193
2.6557093323751459  -10.1003262932357263 102.1788493379062288 1.1154840037843066 7.9999999999999982 194
2.6693580420532252  -10.1025437037358135 102.2225521096884790 1.1147713447764509 7.9999999999999982 195
