 # inv_tmp, energy, phys_var, phys_doublon, phys_num, step_i
0.0165510585309007  7.1618073088186698 97.0564603676730826 1.9562383617541985 8.0000000000000000 1
0.0328972381183356  6.4092456147388646 85.8917767870473625 1.9182235005060528 8.0000000000000000 2
0.0490507573761321  5.6777297445038215 75.9147175667325484 1.8812685582175321 8.0000000000000000 3
0.0650246323250328  4.9697003435387250 67.0996771840472519 1.8454991505569105 8.0000000000000000 4
0.0808321652944203  4.2868721433312693 59.4017037580572378 1.8110062807050986 8.0000000000000000 5
0.0964865273627734  3.6303047897870098 52.7611769820444749 1.7778495135983130 8.0000000000000000 6
0.1120004438106998  3.0004953224789874 47.1083209781552128 1.7460611577390681 8.0000000000000000 7
0.1273859792203099  2.3974800214980632 42.3672543200239176 1.7156509062048593 8.0000000000000000 8
0.1426544101772833  1.8209356610106517 38.4594057050600711 1.6866104887016218 7.9999999999999991 9
0.1578161689539185  1.2702730488921330 35.3062325506708490 1.6589180098606289 8.0000000000000000 10
0.1728808403308107  0.7447185130371117 32.8312611357205242 1.6325417705662371 8.0000000000000000 11
0.1878571948377491  0.2433813582246287 30.9615190969309708 1.6074434733555547 8.0000000000000018 12
0.2027532441724312  -0.2346928954110287 29.6284577637554705 1.5835807928492720 8.0000000000000018 13
0.2175763075890461  -0.6904824806837853 28.7684691205456033 1.5609093470608242 8.0000000000000000 14
0.2323330810803584  -1.1249608557626223 28.3230966436209570 1.5393841383514411 7.9999999999999982 15
0.2470297038750268  -1.5390776818843999 28.2390265225643411 1.5189605484547473 8.0000000000000000 16
0.2616718189814763  -1.9337472882658926 28.4679301005715573 1.4995949752949336 8.0000000000000000 17
0.2762646261963436  -2.3098427607394481 28.9662125999931170 1.4812451945884497 7.9999999999999982 18
0.2908129271969572  -2.6681940389257743 29.6947089830277093 1.4638705198682329 8.0000000000000000 19
0.3053211631267937  -3.0095886913309515 30.6183558954885342 1.4474318230926886 8.0000000000000000 20
0.3197934455452706  -3.3347743209277239 31.7058592287975678 1.4318914660868591 7.9999999999999982 21
0.3342335818308363  -3.6444618131443871 32.9293697428589240 1.4172131817681670 8.0000000000000000 22
0.3486450961714618  -3.9393288623151825 34.2641740823339163 1.4033619340305310 7.9999999999999982 23
0.3630312472089623  -4.2200233975203769 35.6884049991703449 1.3903037765753512 7.9999999999999982 24
0.3773950432697651  -4.4871666749994539 37.1827722868373201 1.3780057239516845 8.0000000000000018 25
0.3917392559496168  -4.7413559152926403 38.7303145066138086 1.3664356425345927 8.0000000000000000 26
0.4060664326479522  -4.9831664436454925 40.3161707746629574 1.3555621649869156 8.0000000000000000 27
0.4203789084855499  -5.2131533471664238 41.9273714730116396 1.3453546287335785 8.0000000000000000 28
0.4346788178964490  -5.4318526968503029 43.5526465952568955 1.3357830369337669 8.0000000000000000 29
0.4489681060667364  -5.6397824015618649 45.1822504315889546 1.3268180391731255 7.9999999999999991 30
0.4632485402999726  -5.8374427685242960 46.8078013659479026 1.3184309284382330 8.0000000000000000 31
0.4775217213205791  -6.0253168442452436 48.4221356558112390 1.3105936507221450 8.0000000000000000 32
0.4917890944798019  -6.2038706039478244 50.0191741662021343 1.3032788237095021 8.0000000000000000 33
0.5060519608004806  -6.3735530486564524 51.5938011208039242 1.2964597612934272 8.0000000000000000 34
0.5203114877831299  -6.5347962587683286 53.1417540095489471 1.2901105010982079 8.0000000000000000 35
0.5345687198931967  -6.6880154424021185 54.6595238535039059 1.2842058326565220 7.9999999999999991 36
0.5488245886546033  -6.8336090068498727 56.1442650765663274 1.2787213243708759 8.0000000000000000 37
0.5630799222850366  -6.9719586725524643 57.5937142726330720 1.2736333478442732 8.0000000000000000 38
0.5773354548216756  -7.1034296414243769 59.0061171897631027 1.2689190985753451 8.0000000000000018 39
0.5915918347004232  -7.2283708251505701 60.3801632822342214 1.2645566123679615 8.0000000000000018 40
0.6058496327659255  -7.3471151342288543 61.7149272094332986 1.2605247771012396 7.9999999999999982 41
0.6201093497028928  -7.4599798249230354 63.0098166886776383 1.2568033397441440 8.0000000000000000 42
0.6343714228908771  -7.5672668987699687 64.2645261381763362 1.2533729086838115 8.0000000000000018 43
0.6486362326944894  -7.6692635476753885 65.4789955767476073 1.2502149515744161 8.0000000000000000 44
0.6629041082089150  -7.7662426367651980 66.6533742785729117 1.2473117890105172 8.0000000000000000 45
0.6771753324865888  -7.8584632168686115 67.7879887139194892 1.2446465843923971 8.0000000000000018 46
0.6914501472751712  -7.9461710586512400 68.8833143399744472 1.2422033303873110 7.9999999999999973 47
0.7057287572996802  -8.0295992008649559 69.9399508392294251 1.2399668324058255 8.0000000000000000 48
0.7200113341230734  -8.1089685058327241 70.9586004357505260 1.2379226895115059 7.9999999999999991 49
0.7342980196198947  -8.1844882160576269 71.9400489517316686 1.2360572731696542 7.9999999999999991 50
0.7485889290970946  -8.2563565066699685 72.8851492975776267 1.2343577042199299 8.0000000000000018 51
0.7628841540949448  -8.3247610292567202 73.7948071181063625 1.2328118284315566 7.9999999999999982 52
0.7771837648993193  -8.3898794434181472 74.6699683450750484 1.2314081909705306 7.9999999999999991 53
0.7914878127946366  -8.4518799331433563 75.5116084319758443 1.2301360100775298 8.0000000000000000 54
0.8057963320845842  -8.5109217057758073 76.3207230708441955 1.2289851502243772 7.9999999999999982 55
0.8201093419054915  -8.5671554719428773 77.0983202126473515 1.2279460949867442 8.0000000000000018 56
0.8344268478549389  -8.6207239053486742 77.8454132327057522 1.2270099198419691 7.9999999999999991 57
0.8487488434559821  -8.6717620817777270 78.5630151006075721 1.2261682650738108 8.0000000000000000 58
0.8630753114752404  -8.7203978970323384 79.2521334302928864 1.2254133089407850 7.9999999999999991 59
0.8774062251111165  -8.7667524638350596 79.9137663005254382 1.2247377412417062 8.0000000000000000 60
0.8917415490665604  -8.8109404879751985 80.5488987489467831 1.2241347373910232 7.9999999999999982 61
0.9060812405191110  -8.8530706241727906 81.1584998544556129 1.2235979330975852 7.9999999999999982 62
0.9204252499994147  -8.8932458122809273 81.7435203328912365 1.2231213997234209 8.0000000000000000 63
0.9347735221880532  -8.9315635945554650 82.3048905800587534 1.2226996203839180 7.9999999999999982 64
0.9491259966392965  -8.9681164147955208 82.8435191041247094 1.2223274668372821 7.9999999999999982 65
0.9634826084393177  -9.0029919002047549 83.3602912964534255 1.2220001771992077 8.0000000000000000 66
0.9778432888054601  -9.0362731268476395 83.8560684961513800 1.2217133345082158 8.0000000000000000 67
0.9922079656323310  -9.0680388695807554 84.3316873090314658 1.2214628461579224 8.0000000000000018 68
1.0065765639897715  -9.0983638373308153 84.7879591464921418 1.2212449242045169 8.0000000000000000 69
1.0209490065771398  -9.1273188945720527 85.2256699540070031 1.2210560665508279 7.9999999999999982 70
1.0353252141378102  -9.1549712698281152 85.6455801026062318 1.2208930390024091 8.0000000000000036 71
1.0497051058373310  -9.1813847519906986 86.0484244199691943 1.2207528581860214 8.0000000000000000 72
1.0640885996082941  -9.2066198752102348 86.4349123405916231 1.2206327753166299 8.0000000000000000 73
1.0784756124646355  -9.2307340930744353 86.8057281569875272 1.2205302607954267 7.9999999999999991 74
1.0928660607877889  -9.2537819427506172 87.1615313560857601 1.2204429896184805 8.0000000000000000 75
1.1072598605868820  -9.2758151997267397 87.5029570269130375 1.2203688275732008 8.0000000000000000 76
1.1216569277349464  -9.2968830237466555 87.8306163273595644 1.2203058181979267 8.0000000000000000 77
1.1360571781829292  -9.3170320964960389 88.1450969993242666 1.2202521704784821 8.0000000000000000 78
1.1504605281531441  -9.3363067515583147 88.4469639228618263 1.2202062472544679 7.9999999999999982 79
1.1648668943136635  -9.3547490971245875 88.7367597011240150 1.2201665543073394 8.0000000000000000 80
1.1792761939350291  -9.3723991319078692 89.0150052689211719 1.2201317301018570 8.0000000000000018 81
1.1936883450305642  -9.3892948546806974 89.2822005186459933 1.2201005361523312 7.9999999999999991 82
1.2081032664814733  -9.4054723678256771 89.5388249381100110 1.2200718479851136 8.0000000000000000 83
1.2225208781478349  -9.4209659752611472 89.7853382555610153 1.2200446466689951 8.0000000000000000 84
1.2369411009665228  -9.4358082750788608 90.0221810877854693 1.2200180108855847 8.0000000000000000 85
1.2513638570370194  -9.4500302472070548 90.2497755877621728 1.2199911095122316 7.9999999999999991 86
1.2657890696960306  -9.4636613363905475 90.4685260888331300 1.2199631946907012 7.9999999999999991 87
1.2802166635817527  -9.4767295307595312 90.6788197427993623 1.2199335953555266 8.0000000000000000 88
1.2946465646885896  -9.4892614362403762 90.8810271497414988 1.2199017111967481 8.0000000000000000 89
1.3090787004130708  -9.5012823470447216 91.0755029777120626 1.2198670070326119 8.0000000000000000 90
1.3235129995916775  -9.5128163124575202 91.2625865707522337 1.2198290075686731 8.0000000000000000 91
1.3379493925312409  -9.5238862001304163 91.4426025439585146 1.2197872925206770 8.0000000000000018 92
1.3523878110325322  -9.5345137560735580 91.6158613645629885 1.2197414920795349 8.0000000000000018 93
1.3668281884076308  -9.5447196615267398 91.7826599182027252 1.2196912826976456 8.0000000000000000 94
1.3812704594916196  -9.5545235868795899 91.9432820597387348 1.2196363831767691 8.0000000000000000 95
1.3957145606491215  -9.5639442428001278 92.0979991481488867 1.2195765510386047 8.0000000000000000 96
1.4101604297761519  -9.5729994287213334 92.2470705651602998 1.2195115791601447 8.0000000000000000 97
1.4246080062977473  -9.5817060788267270 92.3907442174134701 1.2194412926568030 7.9999999999999982 98
1.4390572311617749  -9.5900803056674011 92.5292570220562993 1.2193655459971993 8.0000000000000000 99
1.4535080468293291  -9.5981374415356129 92.6628353757618584 1.2192842203343512 8.0000000000000000 100
1.4679603972620643  -9.6058920777127934 92.7916956072441792 1.2191972210388802 8.0000000000000018 101
1.4824142279068124  -9.6133581017031737 92.9160444134149515 1.2191044754206326 8.0000000000000000 102
1.4968694856777927  -9.6205487325582055 93.0360792793848361 1.2190059306259202 8.0000000000000000 103
1.5113261189367040  -9.6274765543910359 93.1519888825608291 1.2189015516983188 8.0000000000000000 104
1.5257840774709699  -9.6341535481749965 93.2639534811354736 1.2187913197917069 8.0000000000000000 105
1.5402433124703836  -9.6405911219149782 93.3721452872959787 1.2186752305248929 8.0000000000000000 106
1.5547037765023770  -9.6468001392757916 93.4767288255114579 1.2185532924678557 7.9999999999999982 107
1.5691654234861274  -9.6527909467472313 93.5778612762775168 1.2184255257502383 7.9999999999999982 108
1.5836282086656912  -9.6585733994212273 93.6756928057163520 1.2182919607833271 8.0000000000000000 109
1.5980920885823400  -9.6641568854526820 93.7703668814426123 1.2181526370873252 8.0000000000000000 110
1.6125570210462621  -9.6695503492717201 93.8620205751151389 1.2180076022162463 7.9999999999999991 111
1.6270229651077710  -9.6747623136116498 93.9507848521012932 1.2178569107732731 7.9999999999999991 112
1.6414898810281557  -9.6798009004135306 94.0367848486816911 1.2177006235098868 8.0000000000000000 113
1.6559577302502975  -9.6846738506651775 94.1201401372260875 1.2175388065025374 8.0000000000000018 114
1.6704264753691491  -9.6893885432294109 94.2009649797678463 1.2173715304010375 7.9999999999999982 115
1.6848960801021893  -9.6939520127135310 94.2793685704014877 1.2171988697432616 7.9999999999999991 116
1.6993665092599306  -9.6983709664293407 94.3554552669221778 1.2170209023311074 8.0000000000000036 117
1.7138377287165598  -9.7026518004905498 94.4293248121199724 1.2168377086630251 8.0000000000000000 118
1.7283097053807848  -9.7068006150919377 94.5010725451346900 1.2166493714187563 8.0000000000000000 119
1.7427824071669464  -9.7108232290123695 94.5707896032659505 1.2164559749922144 7.9999999999999991 120
1.7572558029664507  -9.7147251933816605 94.6385631146274307 1.2162576050687464 7.9999999999999982 121
1.7717298626195701  -9.7185118047492232 94.7044763820211699 1.2160543482432771 8.0000000000000018 122
1.7862045568876541  -9.7221881174903615 94.7686090583990506 1.2158462916760808 8.0000000000000000 123
1.8006798574257856  -9.7257589555845065 94.8310373142677463 1.2156335227831820 8.0000000000000000 124
1.8151557367559157  -9.7292289237975798 94.8918339973809566 1.2154161289585779 8.0000000000000000 125
1.8296321682405021  -9.7326024182993045 94.9510687850535930 1.2151941973257070 8.0000000000000000 126
1.8441091260566682  -9.7358836367445605 95.0088083294200061 1.2149678145157619 8.0000000000000000 127
1.8585865851709109  -9.7390765878464052 95.0651163959470296 1.2147370664706307 8.0000000000000036 128
1.8730645213143597  -9.7421851004669158 95.1200539955019622 1.2145020382684089 7.9999999999999991 129
1.8875429109586102  -9.7452128322508145 95.1736795102644635 1.2142628139695910 7.9999999999999982 130
1.9020217312921277  -9.7481632778253058 95.2260488137594336 1.2140194764821799 8.0000000000000000 131
1.9165009601972391  -9.7510397765885362 95.2772153852781400 1.2137721074440924 8.0000000000000018 132
1.9309805762277032  -9.7538455201079035 95.3272304189441400 1.2135207871213680 8.0000000000000018 133
1.9454605585868752  -9.7565835591482077 95.3761429276691359 1.2132655943207924 8.0000000000000018 134
1.9599408871064483  -9.7592568103487736 95.4239998422352187 1.2130066063156593 8.0000000000000036 135
1.9744215422257865  -9.7618680625675616 95.4708461057286968 1.2127438987834949 8.0000000000000000 136
1.9889025049718319  -9.7644199829094003 95.5167247635425269 1.2124775457546622 7.9999999999999973 137
2.0033837569395851  -9.7669151224545701 95.5616770491536585 1.2122076195708384 8.0000000000000000 138
2.0178652802731589  -9.7693559217030987 95.6057424658732913 1.2119341908524475 8.0000000000000000 139
2.0323470576473852  -9.7717447157494046 95.6489588647600328 1.2116573284741998 8.0000000000000000 140
2.0468290722499800  -9.7740837392010640 95.6913625188757919 1.2113770995479645 7.9999999999999982 141
2.0613113077642482  -9.7763751308548326 95.7329881940579526 1.2110935694122416 7.9999999999999982 142
2.0757937483523206  -9.7786209381423141 95.7738692163721339 1.2108068016275912 8.0000000000000000 143
2.0902763786389214  -9.7808231213570700 95.8140375364032764 1.2105168579774026 7.9999999999999982 144
2.1047591836956365  -9.7829835576743651 95.8535237905354904 1.2102237984734556 8.0000000000000018 145
2.1192421490256970  -9.7851040449740072 95.8923573593631602 1.2099276813657545 8.0000000000000018 146
2.1337252605492441  -9.7871863054764638 95.9305664233708342 1.2096285631561801 8.0000000000000018 147
2.1482085045890753  -9.7892319892016282 95.9681780160113647 1.2093264986155161 7.9999999999999982 148
2.1626918678568612  -9.7912426772593086 96.0052180743069101 1.2090215408034735 8.0000000000000000 149
2.1771753374398166  -9.7932198849799317 96.0417114870906232 1.2087137410913380 8.0000000000000018 150
2.1916589007878131  -9.7951650648936202 96.0776821410023132 1.2084031491869300 8.0000000000000000 151
2.2061425457009300  -9.7970796095652464 96.1131529643448630 1.2080898131615649 8.0000000000000018 152
2.2206262603174225  -9.7989648542927412 96.1481459689036058 1.2077737794787429 7.9999999999999982 153
2.2351100331020977  -9.8008220796756085 96.1826822898266727 1.2074550930243295 7.9999999999999982 154
2.2495938528350932  -9.8026525140600960 96.2167822236577877 1.2071337971379825 8.0000000000000018 155
2.2640777086010391  -9.8044573358672498 96.2504652646107957 1.2068099336456377 8.0000000000000018 156
2.2785615897785942  -9.8062376758097862 96.2837501391696406 1.2064835428928549 8.0000000000000000 157
2.2930454860303491  -9.8079946190032246 96.3166548390930757 1.2061546637788592 8.0000000000000000 158
2.3075293872930791  -9.8097292069766677 96.3491966529007300 1.2058233337911215 8.0000000000000000 159
2.3220132837683423  -9.8114424395881699 96.3813921959130653 1.2054895890403428 8.0000000000000000 160
2.3364971659134088  -9.8131352768494562 96.4132574389132913 1.2051534642957125 7.9999999999999991 161
2.3509810244325107  -9.8148086406645447 96.4448077354978182 1.2048149930203362 8.0000000000000000 162
2.3654648502684039  -9.8164634164864246 96.4760578481762678 1.2044742074067174 8.0000000000000018 163
2.3799486345942298  -9.8181004548959443 96.5070219732818657 1.2041311384122173 8.0000000000000018 164
2.3944323688056737  -9.8197205731067321 96.5377137647474086 1.2037858157944039 8.0000000000000000 165
2.4089160445134001  -9.8213245563997180 96.5681463568009661 1.2034382681462188 8.0000000000000000 166
2.4233996535357663  -9.8229131594908026 96.5983323856325597 1.2030885229308912 7.9999999999999991 167
2.4378831878917939  -9.8244871078349014 96.6282840100800513 1.2027366065165586 7.9999999999999982 168
2.4523666397944051  -9.8260470988695019 96.6580129313807390 1.2023825442105265 7.9999999999999991 169
2.4668500016438979  -9.8275938032006334 96.6875304120324301 1.2020263602931294 8.0000000000000000 170
2.4813332660216667  -9.8291278657341259 96.7168472938059836 1.2016680780511577 8.0000000000000018 171
2.4958164256841493  -9.8306499067547506 96.7459740149491552 1.2013077198108144 8.0000000000000000 172
2.5102994735570006  -9.8321605229558262 96.7749206266195472 1.2009453069701699 8.0000000000000000 173
2.5247824027294805  -9.8336602884215978 96.8036968085825436 1.2005808600310965 8.0000000000000018 174
2.5392652064490506  -9.8351497555647605 96.8323118842087638 1.2002143986306557 8.0000000000000036 175
2.5537478781161775  -9.8366294560212229 96.8607748348037347 1.1998459415719256 7.9999999999999991 176
2.5682304112793188  -9.8380999015042079 96.8890943133007170 1.1994755068542562 7.9999999999999991 177
2.5827127996301118  -9.8395615846195632 96.9172786573457756 1.1991031117029307 8.0000000000000036 178
2.5971950369987336  -9.8410149796441999 96.9453359018041851 1.1987287725982387 8.0000000000000000 179
2.6116771173494415  -9.8424605432694214 96.9732737907142734 1.1983525053039474 7.9999999999999964 180
2.6261590347762813  -9.8438987153107487 97.0010997887142707 1.1979743248951678 8.0000000000000000 181
2.6406407834989625  -9.8453299193858435 97.0288210919663925 1.1975942457856084 8.0000000000000000 182
2.6551223578588847  -9.8467545635621239 97.0564446386016613 1.1972122817542319 8.0000000000000000 183
2.6696037523153247  -9.8481730409753645 97.0839771187068550 1.1968284459712972 7.9999999999999991 184
2.6840849614417674  -9.8495857304207561 97.1114249838750538 1.1964427510238029 8.0000000000000000 185
2.6985659799223782  -9.8509929969176504 97.1387944563392409 1.1960552089403271 8.0000000000000000 186
2.7130468025486159  -9.8523951922492490 97.1660915377083825 1.1956658312152744 8.0000000000000000 187
2.7275274242159742  -9.8537926554784114 97.1933220173237942 1.1952746288325331 8.0000000000000018 188
2.7420078399208574  -9.8551857134406600 97.2204914802531164 1.1948816122885484 8.0000000000000000 189
2.7564880447575724  -9.8565746812155055 97.2476053149384398 1.1944867916148239 8.0000000000000000 190
2.7709680339154503  -9.8579598625769833 97.2746687205136880 1.1940901763998486 8.0000000000000000 191
2.7854478026760714  -9.8593415504245066 97.3016867138069586 1.1936917758104706 8.0000000000000000 192
2.7999273464106129  -9.8607200271948159 97.3286641360413114 1.1932915986127171 8.0000000000000000 193
2.8144066605772946  -9.8620955652559861 97.3556056592481411 1.1928896531920774 8.0000000000000018 194
2.8288857407189396  -9.8634684272842179 97.3825157924052007 1.1924859475732470 8.0000000000000000 195
2.8433645824606204  -9.8648388666243232 97.4093988873125909 1.1920804894393577 8.0000000000000000 196
