 # inv_tmp, energy, phys_var, phys_doublon, phys_num, step_i
0.0165700547736424  7.3003386336805427 98.6999527742159728 1.9649079337894366 8.0000000000000000 1
0.0329356381707906  6.5510097221235064 87.8084093791296993 1.9279111678508269 8.0000000000000000 2
0.0491061353168464  5.8156749398760308 77.9704597004131585 1.8915458098690607 8.0000000000000000 3
0.0650923937265798  5.0977753006910076 69.1834147328748372 1.8560006075794853 8.0000000000000000 4
0.0809063238765886  4.4002673603905560 61.4268791514833055 1.8214387320964969 8.0000000000000000 5
0.0965604935055651  3.7255730128554649 54.6651265023380759 1.7879955480191077 8.0000000000000000 6
0.1120677426196254  3.0755599002463998 48.8499219147374646 1.7557779290127906 8.0000000000000000 7
0.1274408404493889  2.4515498832249190 43.9235375482686194 1.7248649302548622 8.0000000000000000 8
0.1426921985061345  1.8543509144534132 39.8217312378833554 1.6953095458621177 7.9999999999999991 9
0.1578336466697810  1.2843064708253915 36.4765052436108448 1.6671412429889814 8.0000000000000000 10
0.1728762728855507  0.7413563886545186 33.8185184795700593 1.6403689685289269 8.0000000000000000 11
0.1878303221338860  0.2251033414470379 31.7790821056546413 1.6149843582758230 8.0000000000000000 12
0.2027051470731906  -0.2651199311293155 30.2917176743441168 1.5909649296288275 8.0000000000000000 13
0.2175092010439996  -0.7301864270832517 29.2932951170212341 1.5682770963318493 7.9999999999999991 14
0.2322500636902931  -1.1711163532991846 28.7247935882522647 1.5468788989317472 8.0000000000000000 15
0.2469344899476735  -1.5890258456035755 28.5317425065081416 1.5267223923604472 8.0000000000000000 16
0.2615684742231681  -1.9850836419662388 28.6644051706019383 1.5077556698427794 8.0000000000000000 17
0.2761573229549720  -2.3604757418287594 29.0777656531311131 1.4899245298566433 7.9999999999999982 18
0.2907057301731909  -2.7163776144388683 29.7313737261861384 1.4731738111083599 7.9999999999999991 19
0.3052178520385502  -3.0539332245475914 30.5890944024562614 1.4574484310802469 7.9999999999999973 20
0.3196973775313479  -3.3742399900721809 31.6187997997271601 1.4426941684839250 8.0000000000000018 21
0.3341475934609356  -3.6783387372919449 32.7920324778024650 1.4288582306135786 8.0000000000000000 22
0.3485714427619256  -3.9672077423107175 34.0836617506257227 1.4158896445677311 8.0000000000000000 23
0.3629715756516435  -4.2417600161266673 35.4715480210228691 1.4037395077069936 8.0000000000000000 24
0.3773503936683712  -4.5028430841965967 36.9362249815706676 1.3923611283479578 7.9999999999999982 25
0.3917100869193029  -4.7512406151354600 38.4606054993303417 1.3817100831135565 8.0000000000000000 26
0.4060526650679770  -4.9876753572345169 40.0297140104119364 1.3717442129219795 7.9999999999999991 27
0.4203799827076519  -5.2128129396315810 41.6304461208175809 1.3624235755067065 7.9999999999999973 28
0.4346937598205262  -5.4272661837766059 43.2513546706468119 1.3537103687241117 8.0000000000000000 29
0.4489955980300250  -5.6315996487513846 44.8824606123188232 1.3455688357591606 8.0000000000000000 30
0.4632869933283368  -5.8263342007097769 46.5150865447288595 1.3379651606782863 8.0000000000000036 31
0.4775693459147441  -6.0119514526489493 48.1417105228295554 1.3308673605708887 8.0000000000000000 32
0.4918439677203633  -6.1888979667717532 49.7558377374265461 1.3242451787237619 8.0000000000000000 33
0.5061120881279635  -6.3575891489221590 51.3518877646142897 1.3180699818370112 7.9999999999999982 34
0.5203748583262525  -6.5184127940958883 52.9250952669493984 1.3123146631664275 7.9999999999999982 35
0.5346333546697937  -6.6717322649453052 54.4714222517655244 1.3069535526182134 7.9999999999999991 36
0.5488885813509533  -6.8178893025381164 55.9874802296294547 1.3019623341836637 8.0000000000000000 37
0.5631414726305616  -6.9572064813247536 57.4704608500130263 1.2973179706442344 7.9999999999999991 38
0.5773928948202930  -7.0899893291492768 58.9180738104788588 1.2929986351663252 7.9999999999999982 39
0.5916436481626151  -7.2165281389309648 60.3284910335119946 1.2889836492094977 8.0000000000000000 40
0.6058944687136589  -7.3370995019803855 61.7002962784871158 1.2852534260654689 8.0000000000000000 41
0.6201460303003546  -7.4519675943363994 63.0324395044701120 1.2817894193058621 8.0000000000000018 42
0.6343989465952947  -7.5613852474796222 64.3241954235475788 1.2785740754258730 7.9999999999999982 43
0.6486537733305495  -7.6655948336799282 65.5751257860987238 1.2755907900136121 8.0000000000000000 44
0.6629110106544533  -7.7648289943898412 66.7850450213579165 1.2728238668387419 8.0000000000000018 45
0.6771711056225894  -7.8593112377637908 67.9539889214937745 1.2702584793297671 8.0000000000000018 46
0.6914344548051921  -7.9492564287731273 69.0821861079689654 1.2678806339896003 8.0000000000000018 47
0.7057014069873149  -8.0348711926624024 70.1700320577352841 1.2656771353786276 7.9999999999999991 48
0.7199722659348252  -8.1163542497779275 71.2180654961989745 1.2636355523697131 8.0000000000000000 49
0.7342472931980234  -8.1938966971859557 72.2269469859253235 1.2617441854479403 8.0000000000000018 50
0.7485267109249842  -8.2676822500489422 73.1974395564936344 1.2599920348881226 8.0000000000000018 51
0.7628107046581768  -8.3378874534848677 74.1303912332241026 1.2583687696945181 7.9999999999999973 52
0.7770994260901563  -8.4046818736194471 75.0267193318562988 1.2568646972298156 8.0000000000000000 53
0.7913929957568909  -8.4682282747630762 75.8873963935950826 1.2554707334947000 8.0000000000000036 54
0.8056915056503164  -8.5286827881015714 76.7134376409673138 1.2541783740458476 8.0000000000000018 55
0.8199950217348333  -8.5861950759722010 77.5058898401745182 1.2529796655598511 8.0000000000000018 56
0.8343035863555495  -8.6409084946896062 78.2658214604622344 1.2518671780642903 8.0000000000000000 57
0.8486172205289938  -8.6929602579715226 78.9943140257073821 1.2508339778658673 8.0000000000000000 58
0.8629359261097395  -8.7424816022713152 79.6924545581058936 1.2498736012100835 7.9999999999999982 59
0.8772596878288268  -8.7895979547332317 80.3613290186145122 1.2489800287082167 8.0000000000000000 60
0.8915884752020377  -8.8344291040261620 81.0020166536915980 1.2481476605661017 7.9999999999999991 61
0.9059222443079435  -8.8770893739635124 81.6155851628912217 1.2473712926460729 7.9999999999999991 62
0.9202609394372386  -8.9176877995625805 82.2030866069638364 1.2466460933889643 8.0000000000000018 63
0.9346044946161710  -8.9563283050204063 82.7655539812651142 1.2459675816177580 8.0000000000000000 64
0.9489528350079510  -8.9931098829698541 83.3039983844226697 1.2453316052387153 8.0000000000000018 65
0.9633058781968310  -9.0281267743168474 83.8194067173079418 1.2447343208498709 7.9999999999999982 66
0.9776635353601763  -9.0614686479369553 84.3127398523655529 1.2441721742609761 8.0000000000000000 67
0.9920257123342784  -9.0932207795161499 84.7849312182121650 1.2436418819233408 7.9999999999999973 68
1.0063923105799477  -9.1234642288508212 85.2368857491092626 1.2431404132628880 7.9999999999999982 69
1.0207632280540662  -9.1522760149670201 85.6694791533943487 1.2426649739049562 8.0000000000000000 70
1.0351383599933179  -9.1797292884756452 86.0835574592144610 1.2422129897752199 8.0000000000000000 71
1.0495175996162691  -9.2058935006426985 86.4799367999182635 1.2417820920574130 8.0000000000000018 72
1.0639008387498310  -9.2308345687195299 86.8594034052228352 1.2413701029854334 8.0000000000000000 73
1.0782879683859636  -9.2546150371444291 87.2227137677756730 1.2409750224448151 7.9999999999999982 74
1.0926788791742532  -9.2772942342916753 87.5705949579754019 1.2405950153564649 7.9999999999999991 75
1.1070734618557272  -9.2989284245063963 87.9037450629064097 1.2402283998139514 7.9999999999999982 76
1.1214716076430029  -9.3195709552217831 88.2228337279863695 1.2398736359444469 8.0000000000000018 77
1.1358732085515657  -9.3392723990091273 88.5285027824300812 1.2395293154626144 8.0000000000000000 78
1.1502781576866727  -9.3580806904602944 88.8213669319130759 1.2391941518863070 8.0000000000000000 79
1.1646863494900836  -9.3760412578461949 89.1020145038814348 1.2388669713827620 8.0000000000000000 80
1.1790976799505180  -9.3931971495342950 89.3710082328173598 1.2385467042141258 8.0000000000000000 81
1.1935120467814508  -9.4095891551824025 89.6288860744459583 1.2382323767514689 8.0000000000000018 82
1.2079293495695822  -9.4252559217559053 89.8761620393678697 1.2379231040269763 8.0000000000000000 83
1.2223494898970437  -9.4402340644411957 90.1133270379444440 1.2376180827947085 8.0000000000000000 84
1.2367723714401548  -9.4545582725494910 90.3408497294546606 1.2373165850711216 8.0000000000000000 85
1.2511979000473008  -9.4682614105231764 90.5591773696013149 1.2370179521274669 8.0000000000000036 86
1.2656259837982757  -9.4813746141714077 90.7687366513811611 1.2367215889071772 7.9999999999999982 87
1.2800565330472276  -9.4939273822732932 90.9699345351590125 1.2364269588424071 7.9999999999999991 88
1.2944894604511381  -9.5059476636957783 91.1631590645097560 1.2361335790449601 8.0000000000000000 89
1.3089246809856021  -9.5174619401801728 91.3487801650295808 1.2358410158479809 7.9999999999999991 90
1.3233621119494787  -9.5284953049555767 91.5271504238705518 1.2355488806758848 8.0000000000000000 91
1.3378016729598625  -9.5390715373402575 91.6986058482347346 1.2352568262211219 8.0000000000000018 92
1.3522432859386468  -9.5492131734933032 91.8634666014826706 1.2349645429074960 7.9999999999999991 93
1.3666868750918506  -9.5589415734786503 92.0220377158699563 1.2346717556208282 8.0000000000000000 94
1.3811323668827373  -9.5682769848023224 92.1746097812352758 1.2343782206888285 8.0000000000000000 95
1.3955796899996580  -9.5772386025817333 92.3214596092284125 1.2340837230930806 8.0000000000000000 96
1.4100287753194518  -9.5858446265027002 92.4628508728899163 1.2337880738970308 7.9999999999999982 97
1.4244795558671346  -9.5941123147165044 92.5990347215846583 1.2334911078748478 8.0000000000000000 98
1.4389319667725398  -9.6020580348250490 92.7302503714501256 1.2331926813269398 8.0000000000000000 99
1.4533859452244942  -9.6096973120979499 92.8567256716526686 1.2328926700688059 8.0000000000000000 100
1.4678414304230378  -9.6170448750603761 92.9786776468529865 1.2325909675807325 8.0000000000000000 101
1.4822983635301541  -9.6241146985858226 93.0963130163712549 1.2322874833066693 8.0000000000000000 102
1.4967566876194018  -9.6309200446225809 93.2098286906120563 1.2319821410913541 8.0000000000000000 103
1.5112163476248037  -9.6374735006777996 93.3194122453652142 1.2316748777455055 7.9999999999999982 104
1.5256772902893041  -9.6437870161776367 93.4252423746405896 1.2313656417295691 7.9999999999999982 105
1.5401394641130559  -9.6498719368169326 93.5274893227251880 1.2310543919471519 7.9999999999999982 106
1.5546028193017751  -9.6557390370066685 93.6263152961730896 1.2307410966398851 8.0000000000000000 107
1.5690673077153638  -9.6613985505224900 93.7218748564504835 1.2304257323760326 7.9999999999999982 108
1.5835328828169704  -9.6668601994525982 93.8143152939653788 1.2301082831256931 7.9999999999999973 109
1.5979994996226405  -9.6721332215384681 93.9037769842096850 1.2297887394159417 7.9999999999999982 110
1.6124671146516800  -9.6772263959973603 93.9903937267394269 1.2294670975597493 7.9999999999999991 111
1.6269356858778339  -9.6821480679108536 94.0742930677068614 1.2291433589529335 7.9999999999999982 112
1.6414051726813723  -9.6869061712594444 94.1555966066489987 1.2288175294338266 7.9999999999999982 113
1.6558755358021555  -9.6915082506789911 94.2344202882202495 1.2284896187007250 7.9999999999999982 114
1.6703467372937313  -9.6959614820107838 94.3108746795407171 1.2281596397825432 8.0000000000000018 115
1.6848187404785133  -9.7002726917131596 94.3850652338136058 1.2278276085584352 7.9999999999999982 116
1.6992915099040782  -9.7044483751989414 94.4570925408444566 1.2274935433224625 8.0000000000000000 117
1.7137650113006007  -9.7084947141593538 94.5270525650742570 1.2271574643896603 8.0000000000000000 118
1.7282392115394491  -9.7124175929319048 94.5950368717183778 1.2268193937401599 8.0000000000000000 119
1.7427140785929507  -9.7162226139663286 94.6611328415794020 1.2264793546982402 7.9999999999999982 120
1.7571895814953264  -9.7199151124398337 94.7254238750825550 1.2261373716434447 8.0000000000000018 121
1.7716656903047996  -9.7235001700698582 94.7879895860577619 1.2257934697510970 8.0000000000000000 122
1.7861423760668695  -9.7269826281700027 94.8489059857737118 1.2254476747597742 7.9999999999999982 123
1.8006196107787358  -9.7303670999920051 94.9082456577052085 1.2251000127634584 7.9999999999999991 124
1.8150973673548698  -9.7336579823943445 94.9660779234955612 1.2247505100262845 8.0000000000000018 125
1.8295756195937041  -9.7368594668756661 95.0224690005549348 1.2243991928179481 7.9999999999999982 126
1.8440543421454332  -9.7399755500090510 95.0774821517158131 1.2240460872680032 8.0000000000000018 127
1.8585335104808951  -9.7430100433110258 95.1311778273455104 1.2236912192373934 8.0000000000000000 128
1.8730131008615154  -9.7459665825774202 95.1836138003003214 1.2233346142057273 7.9999999999999982 129
1.8874930903102933  -9.7488486367160618 95.2348452940835557 1.2229762971728819 8.0000000000000018 130
1.9019734565837958  -9.7516595161048016 95.2849251045551853 1.2226162925736672 8.0000000000000000 131
1.9164541781451452  -9.7544023805016877 95.3339037155231068 1.2222546242043730 8.0000000000000036 132
1.9309352341379631  -9.7570802465323077 95.3818294085285743 1.2218913151601010 8.0000000000000036 133
1.9454166043612526  -9.7596959947782569 95.4287483671247401 1.2215263877818932 8.0000000000000000 134
1.9598982692451916  -9.7622523764889699 95.4747047759306042 1.2211598636127405 7.9999999999999982 135
1.9743802098277992  -9.7647520199380438 95.5197409147299084 1.2207917633616221 8.0000000000000018 136
1.9888624077324673  -9.7671974364438903 95.5638972478690789 1.2204221068748056 7.9999999999999991 137
2.0033448451463132  -9.7695910260734529 95.6072125091975948 1.2200509131137012 8.0000000000000000 138
2.0178275047993361  -9.7719350830465714 95.6497237827790627 1.2196782001386124 7.9999999999999982 139
2.0323103699443528  -9.7742318008576401 95.6914665795924009 1.2193039850977945 8.0000000000000018 140
2.0467934243376780  -9.7764832771301311 95.7324749104281238 1.2189282842212608 8.0000000000000018 141
2.0612766522205352  -9.7786915182188459 95.7727813551770026 1.2185511128188531 7.9999999999999964 142
2.0757600383011656  -9.7808584435736865 95.8124171286962252 1.2181724852821096 8.0000000000000000 143
2.0902435677376143  -9.7829858898780131 95.8514121434282913 1.2177924150894985 7.9999999999999973 144
2.1047272261211694  -9.7850756149741009 95.8897950689413960 1.2174109148146688 7.9999999999999991 145
2.1192109994604307  -9.7871293015870879 95.9275933885470096 1.2170279961373280 8.0000000000000000 146
2.1336948741659896  -9.7891485608585924 95.9648334531465252 1.2166436698564609 7.9999999999999991 147
2.1481788370356880  -9.7911349357002067 96.0015405324474784 1.2162579459055820 8.0000000000000018 148
2.1626628752404504  -9.7930899039766484 96.0377388636843534 1.2158708333697581 8.0000000000000000 149
2.1771469763106550  -9.7950148815278162 96.0734516979717199 1.2154823405041699 7.9999999999999991 150
2.1916311281230314  -9.7969112250383326 96.1087013444093969 1.2150924747539844 8.0000000000000018 151
2.2061153188880640  -9.7987802347628019 96.1435092120549371 1.2147012427753396 8.0000000000000000 152
2.2205995371378804  -9.8006231571145328 96.1778958498716037 1.2143086504572762 8.0000000000000036 153
2.2350837717146108  -9.8024411871249093 96.2118809847536056 1.2139147029444284 8.0000000000000000 154
2.2495680117591990  -9.8042354707804122 96.2454835577275105 1.2135194046603544 7.9999999999999991 155
2.2640522467006448  -9.8060071072436443 96.2787217584197776 1.2131227593313523 8.0000000000000018 156
2.2785364662456682  -9.8077571509645498 96.3116130578796401 1.2127247700106483 8.0000000000000000 157
2.2930206603687755  -9.8094866136876568 96.3441742398393615 1.2123254391028626 8.0000000000000018 158
2.3075048193027112  -9.8111964663606628 96.3764214304892732 1.2119247683886294 7.9999999999999982 159
2.3219889335292851  -9.8128876409496861 96.4083701268440052 1.2115227590493163 8.0000000000000018 160
2.3364729937705588  -9.8145610321658694 96.4400352237676515 1.2111194116917336 8.0000000000000018 161
2.3509569909803743  -9.8162174991081255 96.4714310397270935 1.2107147263727964 7.9999999999999982 162
2.3654409163362171  -9.8178578668262375 96.5025713413352264 1.2103087026240555 8.0000000000000000 163
2.3799247612314041  -9.8194829278084299 96.5334693667438160 1.2099013394760481 7.9999999999999982 164
2.3944085172675669  -9.8210934433974035 96.5641378479444654 1.2094926354824327 7.9999999999999991 165
2.4088921762474476  -9.8226901451383597 96.5945890320294609 1.2090825887438497 8.0000000000000000 166
2.4233757301679639  -9.8242737360625920 96.6248347014654314 1.2086711969314825 8.0000000000000000 167
2.4378591712135598  -9.8258448919098740 96.6548861934269183 1.2082584573102839 8.0000000000000018 168
2.4523424917498144  -9.8274042622927666 96.6847544182367216 1.2078443667618424 8.0000000000000018 169
2.4668256843173078  -9.8289524718058008 96.7144498769560670 1.2074289218068621 8.0000000000000018 170
2.4813087416257287  -9.8304901210822511 96.7439826781661623 1.2070121186272393 8.0000000000000000 171
2.4957916565482190  -9.8320177878012238 96.7733625539805189 1.2065939530877223 7.9999999999999991 172
2.5102744221159452  -9.8335360276474635 96.8025988753248328 1.2061744207571321 8.0000000000000000 173
2.5247570315128840  -9.8350453752262990 96.8317006665201632 1.2057535169291462 8.0000000000000000 174
2.5392394780708236  -9.8365463449359147 96.8606766192028488 1.2053312366426250 7.9999999999999982 175
2.5537217552645628  -9.8380394317991016 96.8895351056129641 1.2049075747014859 8.0000000000000000 176
2.5682038567073016  -9.8395251122564531 96.9182841912812449 1.2044825256941099 8.0000000000000000 177
2.5826857761462279  -9.8410038449229447 96.9469316471439129 1.2040560840122905 7.9999999999999982 178
2.5971675074582734  -9.8424760713096511 96.9754849611118743 1.2036282438697132 7.9999999999999982 179
2.6116490446460516  -9.8439422165123389 97.0039513491203991 1.2031989993199732 7.9999999999999991 180
2.6261303818339568  -9.8454026898685427 97.0323377656844599 1.2027683442741317 8.0000000000000000 181
2.6406115132644268  -9.8468578855846332 97.0606509139818598 1.2023362725178104 8.0000000000000000 182
2.6550924332943593  -9.8483081833343835 97.0888972554878649 1.2019027777278335 8.0000000000000018 183
2.6695731363916773  -9.8497539488303367 97.1170830191809387 1.2014678534884182 7.9999999999999991 184
2.6840536171320384  -9.8511955343693725 97.1452142103409813 1.2010314933069217 7.9999999999999982 185
2.6985338701956807  -9.8526332793536184 97.1732966189578349 1.2005936906291459 7.9999999999999991 186
2.7130138903644037  -9.8540675107879458 97.2013358277692987 1.2001544388542120 7.9999999999999991 187
2.7274936725186776  -9.8554985437551679 97.2293372199453216 1.1997137313490112 8.0000000000000018 188
2.7419732116348721  -9.8569266818699504 97.2573059864345169 1.1992715614622336 8.0000000000000018 189
2.7564525027826083  -9.8583522177125147 97.2852471329895536 1.1988279225379936 8.0000000000000018 190
2.7709315411222262  -9.8597754332430014 97.3131654868848415 1.1983828079290437 7.9999999999999973 191
2.7854103219023547  -9.8611966001975251 97.3410657033421955 1.1979362110096061 8.0000000000000000 192
2.7998888404575997  -9.8626159804666180 97.3689522716763634 1.1974881251878062 8.0000000000000000 193
2.8143670922063224  -9.8640338264570477 97.3968295211743538 1.1970385439177393 8.0000000000000000 194
2.8288450726485266  -9.8654503814377126 97.4247016267204344 1.1965874607111648 8.0000000000000000 195
2.8433227773638334  -9.8668658798703177 97.4525726141778819 1.1961348691488378 8.0000000000000000 196
