 # inv_tmp, energy, phys_var, phys_doublon, phys_num, step_i
0.015547  7.360426 98.856380 1.967047 8.000000 1
0.030928  6.668037 88.743488 1.934505 8.000000 2
0.046149  5.986338 79.506708 1.902540 8.000000 3
0.061217  5.318324 71.153180 1.871265 8.000000 4
0.076142  4.666623 63.675476 1.840774 8.000000 5
0.090932  4.033461 57.053212 1.811146 8.000000 6
0.105597  3.420633 51.255017 1.782440 8.000000 7
0.120147  2.829509 46.240707 1.754701 8.000000 8
0.134591  2.261041 41.963500 1.727956 8.000000 9
0.148938  1.715799 38.372138 1.702221 8.000000 10
0.163197  1.194004 35.412824 1.677497 8.000000 11
0.177378  0.695577 33.030898 1.653777 8.000000 12
0.191486  0.220182 31.172236 1.631047 8.000000 13
0.205531  -0.232721 29.784342 1.609284 8.000000 14
0.219517  -0.663833 28.817168 1.588461 8.000000 15
0.233451  -1.073974 28.223678 1.568549 8.000000 16
0.247337  -1.464047 27.960190 1.549515 8.000000 17
0.261182  -1.835004 27.986548 1.531327 8.000000 18
0.274988  -2.187820 28.266146 1.513948 8.000000 19
0.288760  -2.523472 28.765849 1.497348 8.000000 20
0.302500  -2.842920 29.455836 1.481491 8.000000 21
0.316212  -3.147099 30.309400 1.466346 8.000000 22
0.329898  -3.436903 31.302712 1.451882 8.000000 23
0.343561  -3.713184 32.414574 1.438069 8.000000 24
0.357202  -3.976744 33.626173 1.424880 8.000000 25
0.370824  -4.228337 34.920838 1.412287 8.000000 26
0.384427  -4.468666 36.283815 1.400265 8.000000 27
0.398015  -4.698382 37.702058 1.388790 8.000000 28
0.411587  -4.918091 39.164030 1.377839 8.000000 29
0.425145  -5.128349 40.659537 1.367391 8.000000 30
0.438691  -5.329673 42.179566 1.357425 8.000000 31
0.452225  -5.522537 43.716154 1.347921 8.000000 32
0.465749  -5.707376 45.262260 1.338861 8.000000 33
0.479263  -5.884593 46.811669 1.330226 8.000000 34
0.492768  -6.054559 48.358889 1.322001 8.000000 35
0.506266  -6.217614 49.899078 1.314167 8.000000 36
0.519758  -6.374076 51.427974 1.306710 8.000000 37
0.533243  -6.524236 52.941829 1.299614 8.000000 38
0.546722  -6.668367 54.437363 1.292864 8.000000 39
0.560198  -6.806721 55.911712 1.286446 8.000000 40
0.573669  -6.939536 57.362393 1.280345 8.000000 41
0.587137  -7.067032 58.787266 1.274549 8.000000 42
0.600603  -7.189419 60.184499 1.269043 8.000000 43
0.614067  -7.306893 61.552548 1.263816 8.000000 44
0.627529  -7.419642 62.890125 1.258853 8.000000 45
0.640991  -7.527842 64.196179 1.254145 8.000000 46
0.654452  -7.631665 65.469871 1.249677 8.000000 47
0.667913  -7.731271 66.710562 1.245440 8.000000 48
0.681375  -7.826816 67.917788 1.241421 8.000000 49
0.694838  -7.918450 69.091251 1.237610 8.000000 50
0.708302  -8.006318 70.230798 1.233996 8.000000 51
0.721768  -8.090559 71.336409 1.230569 8.000000 52
0.735236  -8.171308 72.408184 1.227319 8.000000 53
0.748707  -8.248695 73.446333 1.224236 8.000000 54
0.762180  -8.322847 74.451160 1.221312 8.000000 55
0.775656  -8.393886 75.423055 1.218538 8.000000 56
0.789135  -8.461933 76.362484 1.215905 8.000000 57
0.802618  -8.527102 77.269978 1.213404 8.000000 58
0.816103  -8.589506 78.146125 1.211028 8.000000 59
0.829593  -8.649254 78.991563 1.208770 8.000000 60
0.843086  -8.706452 79.806970 1.206623 8.000000 61
0.856583  -8.761201 80.593060 1.204578 8.000000 62
0.870084  -8.813602 81.350572 1.202631 8.000000 63
0.883589  -8.863750 82.080269 1.200775 8.000000 64
0.897098  -8.911739 82.782931 1.199004 8.000000 65
0.910611  -8.957659 83.459348 1.197313 8.000000 66
0.924128  -9.001597 84.110318 1.195696 8.000000 67
0.937649  -9.043636 84.736643 1.194148 8.000000 68
0.951174  -9.083860 85.339123 1.192665 8.000000 69
0.964703  -9.122345 85.918555 1.191241 8.000000 70
0.978237  -9.159167 86.475729 1.189874 8.000000 71
0.991774  -9.194400 87.011429 1.188559 8.000000 72
1.005315  -9.228113 87.526423 1.187293 8.000000 73
1.018860  -9.260374 88.021471 1.186071 8.000000 74
1.032409  -9.291247 88.497316 1.184891 8.000000 75
1.045962  -9.320795 88.954685 1.183750 8.000000 76
1.059518  -9.349077 89.394290 1.182645 8.000000 77
1.073078  -9.376151 89.816822 1.181573 8.000000 78
1.086642  -9.402072 90.222957 1.180531 8.000000 79
1.100209  -9.426893 90.613350 1.179518 8.000000 80
1.113780  -9.450663 90.988636 1.178531 8.000000 81
1.127354  -9.473431 91.349432 1.177569 8.000000 82
1.140931  -9.495243 91.696335 1.176629 8.000000 83
1.154511  -9.516144 92.029921 1.175709 8.000000 84
1.168094  -9.536176 92.350746 1.174808 8.000000 85
1.181681  -9.555379 92.659348 1.173925 8.000000 86
1.195270  -9.573792 92.956245 1.173059 8.000000 87
1.208862  -9.591451 93.241935 1.172207 8.000000 88
1.222457  -9.608392 93.516898 1.171368 8.000000 89
1.236054  -9.624649 93.781594 1.170543 8.000000 90
1.249655  -9.640252 94.036469 1.169729 8.000000 91
1.263257  -9.655234 94.281946 1.168925 8.000000 92
1.276862  -9.669622 94.518436 1.168132 8.000000 93
1.290469  -9.683445 94.746329 1.167347 8.000000 94
1.304079  -9.696729 94.966001 1.166570 8.000000 95
1.317690  -9.709500 95.177813 1.165802 8.000000 96
1.331304  -9.721781 95.382110 1.165040 8.000000 97
1.344920  -9.733595 95.579222 1.164284 8.000000 98
1.358538  -9.744964 95.769465 1.163535 8.000000 99
1.372157  -9.755909 95.953141 1.162790 8.000000 100
1.385778  -9.766450 96.130541 1.162051 8.000000 101
1.399402  -9.776605 96.301941 1.161317 8.000000 102
1.413026  -9.786393 96.467606 1.160586 8.000000 103
1.426653  -9.795829 96.627788 1.159859 8.000000 104
1.440280  -9.804932 96.782730 1.159136 8.000000 105
1.453910  -9.813716 96.932663 1.158417 8.000000 106
1.467541  -9.822196 97.077807 1.157700 8.000000 107
1.481173  -9.830385 97.218373 1.156986 8.000000 108
1.494806  -9.838298 97.354563 1.156275 8.000000 109
1.508441  -9.845947 97.486568 1.155566 8.000000 110
1.522077  -9.853344 97.614573 1.154860 8.000000 111
1.535714  -9.860501 97.738752 1.154155 8.000000 112
1.549352  -9.867428 97.859274 1.153453 8.000000 113
1.562991  -9.874136 97.976298 1.152752 8.000000 114
1.576631  -9.880635 98.089976 1.152053 8.000000 115
1.590273  -9.886934 98.200454 1.151356 8.000000 116
1.603915  -9.893043 98.307871 1.150661 8.000000 117
1.617558  -9.898969 98.412359 1.149967 8.000000 118
1.631201  -9.904722 98.514046 1.149274 8.000000 119
1.644846  -9.910309 98.613051 1.148583 8.000000 120
1.658491  -9.915737 98.709491 1.147893 8.000000 121
1.672138  -9.921013 98.803475 1.147204 8.000000 122
1.685784  -9.926145 98.895108 1.146517 8.000000 123
1.699432  -9.931137 98.984491 1.145830 8.000000 124
1.713080  -9.935998 99.071719 1.145145 8.000000 125
1.726728  -9.940731 99.156884 1.144462 8.000000 126
1.740378  -9.945344 99.240072 1.143779 8.000000 127
1.754027  -9.949841 99.321367 1.143097 8.000000 128
1.767677  -9.954227 99.400848 1.142417 8.000000 129
1.781328  -9.958506 99.478591 1.141738 8.000000 130
1.794979  -9.962685 99.554669 1.141060 8.000000 131
1.808631  -9.966766 99.629150 1.140383 8.000000 132
1.822283  -9.970754 99.702101 1.139707 8.000000 133
1.835935  -9.974653 99.773584 1.139032 8.000000 134
1.849588  -9.978467 99.843660 1.138358 8.000000 135
1.863241  -9.982199 99.912386 1.137686 8.000000 136
1.876894  -9.985853 99.979817 1.137015 8.000000 137
1.890548  -9.989431 100.046005 1.136344 8.000000 138
1.904202  -9.992938 100.111000 1.135675 8.000000 139
1.917856  -9.996376 100.174850 1.135007 8.000000 140
1.931510  -9.999748 100.237601 1.134341 8.000000 141
1.945165  -10.003056 100.299296 1.133675 8.000000 142
1.958820  -10.006304 100.359977 1.133011 8.000000 143
1.972474  -10.009493 100.419684 1.132348 8.000000 144
1.986130  -10.012626 100.478454 1.131686 8.000000 145
1.999785  -10.015705 100.536324 1.131026 8.000000 146
2.013440  -10.018733 100.593328 1.130366 8.000000 147
2.027096  -10.021711 100.649501 1.129708 8.000000 148
2.040751  -10.024642 100.704872 1.129051 8.000000 149
2.054407  -10.027526 100.759474 1.128396 8.000000 150
2.068063  -10.030367 100.813334 1.127742 8.000000 151
2.081719  -10.033165 100.866480 1.127089 8.000000 152
2.095375  -10.035923 100.918939 1.126438 8.000000 153
2.109031  -10.038641 100.970736 1.125788 8.000000 154
2.122687  -10.041322 101.021896 1.125139 8.000000 155
2.136343  -10.043966 101.072440 1.124492 8.000000 156
2.149999  -10.046576 101.122392 1.123846 8.000000 157
2.163655  -10.049152 101.171772 1.123201 8.000000 158
2.177311  -10.051695 101.220600 1.122558 8.000000 159
2.190967  -10.054208 101.268897 1.121917 8.000000 160
2.204623  -10.056690 101.316680 1.121276 8.000000 161
2.218279  -10.059143 101.363967 1.120638 8.000000 162
2.231936  -10.061568 101.410774 1.120001 8.000000 163
2.245591  -10.063966 101.457119 1.119365 8.000000 164
2.259247  -10.066338 101.503016 1.118731 8.000000 165
2.272903  -10.068685 101.548480 1.118098 8.000000 166
2.286559  -10.071008 101.593526 1.117467 8.000000 167
2.300215  -10.073307 101.638166 1.116837 8.000000 168
2.313871  -10.075583 101.682414 1.116209 8.000000 169
2.327526  -10.077837 101.726282 1.115583 8.000000 170
2.341182  -10.080070 101.769782 1.114958 8.000000 171
2.354837  -10.082283 101.812925 1.114334 8.000000 172
2.368493  -10.084475 101.855722 1.113713 8.000000 173
2.382148  -10.086648 101.898183 1.113092 8.000000 174
2.395803  -10.088803 101.940319 1.112474 8.000000 175
2.409458  -10.090939 101.982138 1.111857 8.000000 176
2.423113  -10.093058 102.023649 1.111242 8.000000 177
2.436768  -10.095160 102.064862 1.110628 8.000000 178
2.450423  -10.097245 102.105785 1.110016 8.000000 179
2.464077  -10.099314 102.146425 1.109406 8.000000 180
2.477732  -10.101367 102.186790 1.108797 8.000000 181
2.491386  -10.103406 102.226887 1.108190 8.000000 182
2.505040  -10.105429 102.266724 1.107585 8.000000 183
2.518694  -10.107438 102.306306 1.106981 8.000000 184
2.532348  -10.109433 102.345640 1.106379 8.000000 185
2.546002  -10.111415 102.384733 1.105779 8.000000 186
2.559656  -10.113383 102.423589 1.105180 8.000000 187
2.573310  -10.115338 102.462216 1.104584 8.000000 188
2.586963  -10.117281 102.500616 1.103989 8.000000 189
2.600616  -10.119211 102.538797 1.103395 8.000000 190
2.614269  -10.121129 102.576762 1.102804 8.000000 191
2.627922  -10.123036 102.614517 1.102214 8.000000 192
2.641575  -10.124931 102.652065 1.101626 8.000000 193
2.655228  -10.126815 102.689411 1.101039 8.000000 194
2.668880  -10.128688 102.726559 1.100455 8.000000 195
2.682533  -10.130550 102.763513 1.099872 8.000000 196
2.696185  -10.132401 102.800276 1.099291 8.000000 197
2.709837  -10.134242 102.836852 1.098712 8.000000 198
2.723489  -10.136074 102.873244 1.098134 8.000000 199
2.737141  -10.137895 102.909456 1.097559 8.000000 200
2.750792  -10.139706 102.945490 1.096985 8.000000 201
2.764444  -10.141508 102.981350 1.096413 8.000000 202
2.778095  -10.143301 103.017038 1.095843 8.000000 203
2.791746  -10.145084 103.052557 1.095274 8.000000 204
2.805397  -10.146859 103.087909 1.094708 8.000000 205
2.819048  -10.148624 103.123098 1.094143 8.000000 206
2.832699  -10.150381 103.158124 1.093580 8.000000 207
2.846349  -10.152129 103.192991 1.093019 8.000000 208
2.860000  -10.153868 103.227700 1.092460 8.000000 209
2.873650  -10.155599 103.262253 1.091903 8.000000 210
2.887300  -10.157322 103.296653 1.091347 8.000000 211
2.900950  -10.159037 103.330901 1.090794 8.000000 212
2.914599  -10.160744 103.364999 1.090242 8.000000 213
2.928249  -10.162442 103.398948 1.089692 8.000000 214
2.941898  -10.164133 103.432750 1.089144 8.000000 215
2.955547  -10.165816 103.466407 1.088598 8.000000 216
2.969196  -10.167492 103.499920 1.088054 8.000000 217
2.982845  -10.169160 103.533290 1.087511 8.000000 218
2.996494  -10.170820 103.566519 1.086971 8.000000 219
3.010143  -10.172473 103.599608 1.086432 8.000000 220
3.023791  -10.174118 103.632557 1.085896 8.000000 221
3.037439  -10.175757 103.665369 1.085361 8.000000 222
3.051087  -10.177388 103.698044 1.084828 8.000000 223
3.064735  -10.179012 103.730583 1.084297 8.000000 224
3.078383  -10.180629 103.762987 1.083768 8.000000 225
3.092031  -10.182238 103.795257 1.083241 8.000000 226
3.105678  -10.183841 103.827393 1.082716 8.000000 227
3.119326  -10.185437 103.859398 1.082193 8.000000 228
3.132973  -10.187026 103.891270 1.081672 8.000000 229
3.146620  -10.188608 103.923012 1.081152 8.000000 230
3.160267  -10.190184 103.954623 1.080635 8.000000 231
3.173914  -10.191752 103.986105 1.080120 8.000000 232
3.187560  -10.193314 104.017458 1.079606 8.000000 233
3.201207  -10.194869 104.048682 1.079095 8.000000 234
3.214853  -10.196418 104.079779 1.078585 8.000000 235
3.228499  -10.197960 104.110748 1.078077 8.000000 236
3.242145  -10.199495 104.141591 1.077572 8.000000 237
3.255791  -10.201024 104.172307 1.077068 8.000000 238
3.269437  -10.202547 104.202896 1.076566 8.000000 239
3.283083  -10.204063 104.233361 1.076067 8.000000 240
3.296728  -10.205572 104.263700 1.075569 8.000000 241
3.310373  -10.207075 104.293914 1.075073 8.000000 242
3.324019  -10.208572 104.324004 1.074579 8.000000 243
3.337664  -10.210062 104.353970 1.074087 8.000000 244
3.351309  -10.211546 104.383812 1.073598 8.000000 245
3.364953  -10.213024 104.413530 1.073110 8.000000 246
3.378598  -10.214495 104.443125 1.072624 8.000000 247
3.392243  -10.215960 104.472597 1.072140 8.000000 248
3.405887  -10.217419 104.501947 1.071658 8.000000 249
3.419531  -10.218871 104.531173 1.071178 8.000000 250
3.433175  -10.220317 104.560277 1.070700 8.000000 251
3.446819  -10.221757 104.589259 1.070224 8.000000 252
3.460463  -10.223191 104.618120 1.069750 8.000000 253
3.474107  -10.224619 104.646858 1.069279 8.000000 254
3.487751  -10.226040 104.675474 1.068809 8.000000 255
3.501394  -10.227455 104.703970 1.068341 8.000000 256
3.515038  -10.228864 104.732343 1.067875 8.000000 257
3.528681  -10.230267 104.760596 1.067411 8.000000 258
3.542324  -10.231664 104.788727 1.066949 8.000000 259
3.555968  -10.233054 104.816738 1.066489 8.000000 260
3.569611  -10.234439 104.844628 1.066032 8.000000 261
3.583253  -10.235817 104.872397 1.065576 8.000000 262
3.596896  -10.237189 104.900045 1.065122 8.000000 263
3.610539  -10.238555 104.927573 1.064670 8.000000 264
3.624182  -10.239915 104.954980 1.064221 8.000000 265
3.637824  -10.241269 104.982267 1.063773 8.000000 266
3.651466  -10.242617 105.009434 1.063327 8.000000 267
3.665109  -10.243959 105.036481 1.062884 8.000000 268
3.678751  -10.245295 105.063408 1.062442 8.000000 269
3.692393  -10.246625 105.090214 1.062002 8.000000 270
3.706035  -10.247948 105.116901 1.061565 8.000000 271
3.719677  -10.249266 105.143468 1.061129 8.000000 272
3.733319  -10.250577 105.169915 1.060695 8.000000 273
3.746960  -10.251883 105.196242 1.060264 8.000000 274
3.760602  -10.253182 105.222450 1.059834 8.000000 275
3.774243  -10.254476 105.248538 1.059407 8.000000 276
3.787885  -10.255763 105.274507 1.058981 8.000000 277
3.801526  -10.257045 105.300356 1.058558 8.000000 278
3.815168  -10.258320 105.326086 1.058137 8.000000 279
3.828809  -10.259590 105.351697 1.057717 8.000000 280
3.842450  -10.260853 105.377188 1.057300 8.000000 281
3.856091  -10.262111 105.402561 1.056884 8.000000 282
3.869732  -10.263363 105.427814 1.056471 8.000000 283
3.883373  -10.264608 105.452948 1.056060 8.000000 284
3.897014  -10.265848 105.477964 1.055650 8.000000 285
3.910654  -10.267082 105.502861 1.055243 8.000000 286
3.924295  -10.268309 105.527639 1.054838 8.000000 287
3.937936  -10.269531 105.552298 1.054434 8.000000 288
3.951576  -10.270747 105.576839 1.054033 8.000000 289
3.965217  -10.271957 105.601261 1.053634 8.000000 290
3.978857  -10.273161 105.625565 1.053237 8.000000 291
3.992497  -10.274359 105.649751 1.052841 8.000000 292
4.006138  -10.275551 105.673819 1.052448 8.000000 293
4.019778  -10.276737 105.697768 1.052057 8.000000 294
4.033418  -10.277918 105.721600 1.051668 8.000000 295
4.047058  -10.279092 105.745314 1.051281 8.000000 296
4.060698  -10.280261 105.768910 1.050895 8.000000 297
4.074338  -10.281423 105.792388 1.050512 8.000000 298
4.087978  -10.282580 105.815749 1.050131 8.000000 299
4.101618  -10.283731 105.838992 1.049752 8.000000 300
4.115258  -10.284876 105.862119 1.049374 8.000000 301
4.128898  -10.286016 105.885128 1.048999 8.000000 302
4.142537  -10.287149 105.908020 1.048626 8.000000 303
4.156177  -10.288277 105.930795 1.048254 8.000000 304
4.169817  -10.289398 105.953454 1.047885 8.000000 305
4.183456  -10.290514 105.975996 1.047518 8.000000 306
4.197096  -10.291625 105.998422 1.047152 8.000000 307
4.210736  -10.292729 106.020731 1.046789 8.000000 308
4.224375  -10.293828 106.042924 1.046428 8.000000 309
4.238015  -10.294920 106.065002 1.046068 8.000000 310
4.251654  -10.296007 106.086963 1.045711 8.000000 311
4.265293  -10.297089 106.108809 1.045355 8.000000 312
4.278933  -10.298164 106.130540 1.045001 8.000000 313
4.292572  -10.299234 106.152155 1.044650 8.000000 314
4.306211  -10.300298 106.173655 1.044300 8.000000 315
4.319851  -10.301356 106.195041 1.043952 8.000000 316
4.333490  -10.302409 106.216311 1.043606 8.000000 317
4.347129  -10.303456 106.237468 1.043262 8.000000 318
4.360768  -10.304497 106.258510 1.042920 8.000000 319
4.374407  -10.305532 106.279437 1.042580 8.000000 320
4.388047  -10.306562 106.300251 1.042242 8.000000 321
4.401686  -10.307586 106.320952 1.041906 8.000000 322
4.415325  -10.308605 106.341539 1.041572 8.000000 323
4.428964  -10.309618 106.362012 1.041239 8.000000 324
4.442603  -10.310625 106.382373 1.040909 8.000000 325
4.456242  -10.311627 106.402621 1.040580 8.000000 326
4.469881  -10.312623 106.422757 1.040253 8.000000 327
4.483520  -10.313613 106.442780 1.039929 8.000000 328
4.497159  -10.314598 106.462691 1.039606 8.000000 329
4.510798  -10.315578 106.482490 1.039285 8.000000 330
4.524437  -10.316552 106.502178 1.038966 8.000000 331
4.538076  -10.317520 106.521755 1.038648 8.000000 332
4.551715  -10.318483 106.541220 1.038333 8.000000 333
4.565354  -10.319440 106.560575 1.038019 8.000000 334
4.578993  -10.320392 106.579819 1.037708 8.000000 335
4.592632  -10.321338 106.598953 1.037398 8.000000 336
4.606271  -10.322279 106.617977 1.037090 8.000000 337
4.619909  -10.323214 106.636892 1.036783 8.000000 338
4.633548  -10.324144 106.655697 1.036479 8.000000 339
4.647187  -10.325069 106.674392 1.036177 8.000000 340
4.660826  -10.325988 106.692980 1.035876 8.000000 341
4.674465  -10.326902 106.711458 1.035577 8.000000 342
4.688104  -10.327810 106.729829 1.035280 8.000000 343
4.701743  -10.328713 106.748091 1.034985 8.000000 344
4.715382  -10.329611 106.766246 1.034691 8.000000 345
4.729021  -10.330503 106.784294 1.034400 8.000000 346
4.742660  -10.331390 106.802234 1.034110 8.000000 347
4.756299  -10.332272 106.820068 1.033822 8.000000 348
4.769938  -10.333148 106.837796 1.033535 8.000000 349
4.783577  -10.334020 106.855417 1.033251 8.000000 350
4.797216  -10.334886 106.872933 1.032968 8.000000 351
4.810855  -10.335746 106.890343 1.032687 8.000000 352
4.824494  -10.336602 106.907649 1.032408 8.000000 353
4.838133  -10.337452 106.924850 1.032130 8.000000 354
4.851772  -10.338297 106.941946 1.031854 8.000000 355
4.865411  -10.339137 106.958938 1.031580 8.000000 356
4.879050  -10.339972 106.975827 1.031308 8.000000 357
4.892689  -10.340802 106.992612 1.031037 8.000000 358
4.906328  -10.341626 107.009294 1.030768 8.000000 359
4.919967  -10.342446 107.025874 1.030501 8.000000 360
4.933606  -10.343260 107.042352 1.030236 8.000000 361
4.947245  -10.344070 107.058727 1.029972 8.000000 362
4.960884  -10.344874 107.075001 1.029710 8.000000 363
4.974524  -10.345673 107.091174 1.029450 8.000000 364
4.988163  -10.346468 107.107246 1.029191 8.000000 365
5.001802  -10.347257 107.123217 1.028934 8.000000 366
5.015441  -10.348042 107.139088 1.028678 8.000000 367
5.029080  -10.348821 107.154860 1.028425 8.000000 368
5.042720  -10.349595 107.170532 1.028173 8.000000 369
5.056359  -10.350365 107.186106 1.027922 8.000000 370
5.069998  -10.351130 107.201580 1.027673 8.000000 371
5.083638  -10.351890 107.216957 1.027426 8.000000 372
5.097277  -10.352645 107.232235 1.027180 8.000000 373
5.110917  -10.353395 107.247417 1.026937 8.000000 374
5.124556  -10.354140 107.262501 1.026694 8.000000 375
5.138196  -10.354881 107.277489 1.026453 8.000000 376
