 # inv_tmp, energy, phys_var, phys_doublon, phys_num, step_i
0.0155232788501529  7.1612398832673660 96.7838536322027636 1.9631400910416197 8.0000000000000036 1
0.0308779118196675  6.4575612703114302 86.7233532862876473 1.9294136216882019 8.0000000000000018 2
0.0460708211908571  5.7657249228560072 77.6154742098426311 1.8961068091816018 8.0000000000000071 3
0.0611098281854714  5.0881608156448621 69.4489946710141481 1.8633231165581323 8.0000000000000000 4
0.0760034598415649  4.4270423893099382 62.2005600969287968 1.8311616937972697 8.0000000000000000 5
0.0907607544662160  3.7842634674574720 55.8365185745254280 1.7997161099203609 7.9999999999999982 6
0.1053910708690908  3.1614218875354592 50.3148504053229004 1.7690729633098903 8.0000000000000000 7
0.1199039065163198  2.5598105611156106 45.5870999591639787 1.7393105052741107 7.9999999999999973 8
0.1343087294879646  1.9804163986751222 41.6002329649053877 1.7104974107411979 8.0000000000000000 9
0.1486148285545290  1.4239271105998834 38.2983584078090118 1.6826918088005205 8.0000000000000000 10
0.1628311847831756  0.8907454103771046 35.6242704794213196 1.6559406511995922 7.9999999999999991 11
0.1769663669090728  0.3810096845608144 33.5207818040632191 1.6302794564776610 8.0000000000000000 12
0.1910284513911034  -0.1053801706674851 31.9318337763977169 1.6057324281805498 8.0000000000000000 13
0.2050249667667077  -0.5687332697408921 30.8033826905450425 1.5823129128204212 8.0000000000000036 14
0.2189628607670160  -1.0095362058729618 30.0840709526418095 1.5600241399436157 8.0000000000000018 15
0.2328484877508802  -1.4284209835030075 29.7257007602349681 1.5388601737090415 7.9999999999999982 16
0.2466876134156724  -1.8261337455540494 29.6835331358696308 1.5188070019104547 7.9999999999999982 17
0.2604854334471009  -2.2035053691815940 29.9164382625677021 1.4998436924724168 8.0000000000000018 18
0.2742466027463153  -2.5614247158091841 30.3869239997426099 1.4819435567286237 7.9999999999999982 19
0.2879752720640643  -2.9008150363042700 31.0610686818845352 1.4650752709074017 8.0000000000000000 20
0.3016751292134795  -3.2226137749619514 31.9083822836882725 1.4492039202162927 7.9999999999999991 21
0.3153494424619971  -3.5277558015738490 32.9016172238249425 1.4342919422617499 7.9999999999999982 22
0.3290011041647786  -3.8171599356126258 34.0165468691670014 1.4202999573189050 8.0000000000000000 23
0.3426326731550400  -4.0917185101030356 35.2317265074804951 1.4071874817060634 7.9999999999999982 24
0.3562464148223006  -4.3522896502425601 36.5282484098476417 1.3949135271056292 7.9999999999999982 25
0.3698443381708741  -4.5996919059908823 37.8894997547913519 1.3834370932405957 8.0000000000000018 26
0.3834282294506635  -4.8347008705270511 39.3009297167047578 1.3727175641396760 8.0000000000000000 27
0.3969996821902051  -5.0580474297962743 40.7498299613478068 1.3627150196425462 8.0000000000000000 28
0.4105601236422809  -5.2704173153823213 42.2251311328001648 1.3533904741529126 8.0000000000000000 29
0.4241108377822717  -5.4724516679353270 43.7172166270799778 1.3447060542540168 8.0000000000000000 30
0.4376529850868764  -5.6647483569492287 45.2177539820091425 1.3366251259233541 8.0000000000000000 31
0.4511876193740872  -5.8478638416195885 46.7195435199360389 1.3291123809311987 7.9999999999999982 32
0.4647157020120188  -6.0223153946561965 48.2163834090133179 1.3221338907388314 7.9999999999999982 33
0.4782381138110665  -6.1885835449413804 49.7029500130275466 1.3156571349390598 8.0000000000000000 34
0.4917556649065482  -6.3471146251107982 51.1746922380771920 1.3096510100773506 8.0000000000000000 35
0.5052691029220653  -6.4983233362392321 52.6277385218150044 1.3040858236006729 8.0000000000000036 36
0.5187791196808710  -6.6425952638984240 54.0588151189609931 1.2989332767247257 7.9999999999999964 37
0.5322863567063338  -6.7802892981714091 55.4651743926335001 1.2941664391948222 7.9999999999999982 38
0.5457914097251155  -6.9117399251194129 56.8445319071532040 1.2897597182368761 8.0000000000000018 39
0.5592948323594119  -7.0372593691169731 58.1950112211120825 1.2856888234421866 8.0000000000000036 40
0.5727971391684985  -7.1571395748159166 59.5150953899765724 1.2819307288886246 7.9999999999999973 41
0.5862988081755104  -7.2716540246732713 60.8035842984812049 1.2784636334560364 8.0000000000000000 42
0.5998002829932289  -7.3810593933495081 62.0595570499484808 1.2752669200296212 7.9999999999999982 43
0.6133019746428161  -7.4855970441816302 63.2823387395194459 1.2723211140871862 7.9999999999999964 44
0.6268042631419536  -7.5854943756461344 64.4714710294298072 1.2696078420213615 8.0000000000000000 45
0.6403074989236570  -7.6809660274945939 65.6266860261769835 1.2671097894446743 8.0000000000000000 46
0.6538120041339942  -7.7722149572759420 66.7478830315740481 1.2648106596541049 8.0000000000000000 47
0.6673180738459040  -7.8594333984248639 67.8351078026125833 1.2626951323842295 8.0000000000000000 48
0.6808259772170759  -7.9428037111361158 68.8885340093450225 1.2607488229478760 8.0000000000000018 49
0.6943359586122309  -8.0224991369739502 69.9084466264151700 1.2589582418450902 8.0000000000000000 50
0.7078482387039485  -8.0986844676753158 70.8952270332338799 1.2573107549111389 8.0000000000000036 51
0.7213630155612251  -8.1715166379680930 71.8493396309635273 1.2557945440692380 7.9999999999999956 52
0.7348804657310432  -8.2411452514981534 72.7713198122612539 1.2543985687514461 8.0000000000000036 53
0.7484007453152467  -8.3077130481844730 73.6617631428915161 1.2531125280500657 8.0000000000000000 54
0.7619239910427720  -8.3713563205347956 74.5213156335762363 1.2519268236610730 8.0000000000000000 55
0.7754503213356818  -8.4322052856777745 75.3506649964020596 1.2508325236795881 7.9999999999999982 56
0.7889798373663538  -8.4903844191209608 76.1505327933338236 1.2498213273051686 8.0000000000000000 57
0.8025126241024996  -8.5460127555377898 76.9216673953415437 1.2488855305113422 8.0000000000000036 58
0.8160487513363388  -8.5992041612299204 77.6648376797643749 1.2480179927294752 7.9999999999999991 59
0.8295882746941583  -8.6500675823076421 78.3808274011404507 1.2472121045917954 8.0000000000000000 60
0.8431312366225842  -8.6987072720822454 79.0704301771285714 1.2464617567723835 7.9999999999999982 61
0.8566776673481308  -8.7452230006711869 79.7344450365623771 1.2457613099583837 8.0000000000000000 62
0.8702275858069322  -8.7897102493763590 80.3736724813175556 1.2451055659767607 7.9999999999999947 63
0.8837810005419474  -8.8322603920072229 80.9889110176869593 1.2444897400948729 8.0000000000000000 64
0.8973379105653806  -8.8729608649785625 81.5809541164768461 1.2439094345060477 7.9999999999999982 65
0.9108983061844840  -8.9118953277162873 82.1505875641671821 1.2433606130045365 8.0000000000000000 66
0.9244621697893705  -8.9491438146469253 82.6985871702809021 1.2428395768475919 8.0000000000000036 67
0.9380294766018727  -8.9847828798266871 83.2257167986676052 1.2423429417963243 8.0000000000000000 68
0.9516001953848952  -9.0188857350779799 83.7327266927473630 1.2418676163213065 8.0000000000000036 69
0.9651742891120648  -9.0515223823423128 84.2203520669335148 1.2414107809537633 8.0000000000000000 70
0.9787517155978233  -9.0827597408257290 84.6893119384812394 1.2409698687586823 8.0000000000000018 71
0.9923324280883934  -9.1126617694015444 85.1403081759007705 1.2405425469021685 8.0000000000000036 72
1.0059163758143086  -9.1412895846438698 85.5740247418661681 1.2401266992820377 7.9999999999999982 73
1.0195035045054155  -9.1687015747907523 85.9911271102279215 1.2397204101878181 8.0000000000000000 74
1.0330937568694394  -9.1949535098746651 86.3922618383263625 1.2393219489540530 8.0000000000000000 75
1.0466870730353504  -9.2200986482102216 86.7780562773032784 1.2389297555690937 7.9999999999999964 76
1.0602833909628915  -9.2441878393903778 87.1491184045180205 1.2385424272002570 8.0000000000000036 77
1.0738826468197120  -9.2672696239126076 87.5060367635068559 1.2381587055953889 7.9999999999999982 78
1.0874847753276164  -9.2893903295343208 87.8493804981757762 1.2377774653204823 8.0000000000000036 79
1.1010897100794850  -9.3105941644391397 88.1796994690868132 1.2373977027927943 8.0000000000000000 80
1.1146973838284291  -9.3309233072844329 88.4975244408019819 1.2370185260692521 8.0000000000000000 81
1.1283077287507648  -9.3504179941910337 88.8033673302694240 1.2366391453502867 8.0000000000000000 82
1.1419206766843668  -9.3691166027316974 89.0977215071961837 1.2362588641600398 8.0000000000000000 83
1.1555361593439366  -9.3870557329708486 89.3810621382379793 1.2358770711647118 8.0000000000000018 84
1.1691541085147013  -9.4042702856074243 89.6538465676584195 1.2354932325919230 8.0000000000000000 85
1.1827744562259954  -9.4207935372723242 89.9165147278742438 1.2351068852151166 8.0000000000000000 86
1.1963971349061473  -9.4366572130328716 90.1694895739983480 1.2347176298683011 8.0000000000000000 87
1.2100220775200241  -9.4518915561583654 90.4131775371416211 1.2343251254578211 8.0000000000000000 88
1.2236492176905356  -9.4665253952025186 90.6479689918237170 1.2339290834392136 8.0000000000000000 89
1.2372784898053402  -9.4805862084608084 90.8742387333814463 1.2335292627286629 8.0000000000000036 90
1.2509098291099243  -9.4941001858629139 91.0923464617588934 1.2331254650200214 8.0000000000000000 91
1.2645431717881721  -9.5070922883623439 91.3026372685100540 1.2327175304798155 8.0000000000000036 92
1.2781784550314725  -9.5195863048873779 91.5054421242513598 1.2323053337940910 8.0000000000000000 93
1.2918156170973536  -9.5316049069191315 91.7010783641707405 1.2318887805424064 8.0000000000000000 94
1.3054545973585645  -9.5431697007639418 91.8898501695308596 1.2314678038756277 8.0000000000000000 95
1.3190953363434759  -9.5543012775883263 92.0720490434031831 1.2310423614755810 8.0000000000000018 96
1.3327377757686034  -9.5650192612858511 92.2479542791401173 1.2306124327758983 8.0000000000000000 97
1.3463818585640006  -9.5753423542457021 92.4178334203294867 1.2301780164246896 7.9999999999999982 98
1.3600275288922292  -9.5852883810926528 92.5819427111929656 1.2297391279708576 7.9999999999999991 99
1.3736747321615395  -9.5948743304690041 92.7405275365800037 1.2292957977570689 8.0000000000000018 100
1.3873234150338694  -9.6041163949276029 92.8938228508777115 1.2288480690034913 8.0000000000000000 101
1.4009735254282054  -9.6130300090058576 93.0420535953086301 1.2283959960674737 8.0000000000000071 102
1.4146250125198145  -9.6216298855486002 93.1854351032178556 1.2279396428653351 8.0000000000000018 103
1.4282778267358165  -9.6299300503479675 93.3241734930702336 1.2274790814434158 8.0000000000000036 104
1.4419319197475189  -9.6379438751663358 93.4584660489758932 1.2270143906863891 7.9999999999999982 105
1.4555872444599078  -9.6456841092078296 93.5885015886543101 1.2265456551517466 7.9999999999999982 106
1.4692437549986557  -9.6531629091020417 93.7144608188201289 1.2260729640201022 8.0000000000000000 107
1.4829014066949655  -9.6603918674624669 93.8365166780421873 1.2255964101517574 7.9999999999999929 108
1.4965601560685537  -9.6673820400801667 93.9548346671832348 1.2251160892406665 7.9999999999999964 109
1.5102199608090385  -9.6741439718119082 94.0695731675722016 1.2246320990575568 7.9999999999999982 110
1.5238807797559790  -9.6806877212199698 94.1808837471073730 1.2241445387746508 8.0000000000000036 111
1.5375425728777883  -9.6870228840191412 94.2889114545152438 1.2236535083649387 7.9999999999999991 112
1.5512053012497120  -9.6931586153847586 94.3937951020245833 1.2231591080695385 7.9999999999999973 113
1.5648689270310672  -9.6991036511734237 94.4956675367284333 1.2226614379271492 7.9999999999999929 114
1.5785334134418860  -9.7048663281067000 94.5946559009356065 1.2221605973600931 7.9999999999999982 115
1.5921987247391232  -9.7104546029657755 94.6908818818153577 1.2216566848118500 7.9999999999999991 116
1.6058648261925466  -9.7158760708436471 94.7844619506588373 1.2211497974314272 8.0000000000000018 117
1.6195316840604348  -9.7211379824992470 94.8755075920785487 1.2206400308002339 8.0000000000000018 118
1.6331992655651768  -9.7262472608563808 94.9641255234805897 1.2201274786975189 7.9999999999999982 119
1.6468675388688701  -9.7312105166885132 95.0504179051373939 1.2196122329007302 7.9999999999999964 120
1.6605364730489953  -9.7360340635285958 95.1344825411942452 1.2190943830174477 7.9999999999999964 121
1.6742060380742370  -9.7407239318418029 95.2164130719405932 1.2185740163458414 8.0000000000000000 122
1.6878762047805151  -9.7452858824968711 95.2962991576687273 1.2180512177608280 8.0000000000000000 123
1.7015469448472758  -9.7497254195707708 95.3742266544447688 1.2175260696233643 8.0000000000000000 124
1.7152182307740942  -9.7540478025193398 95.4502777821067951 1.2169986517105158 8.0000000000000000 125
1.7288900358576227  -9.7582580577453637 95.5245312847983286 1.2164690411641410 8.0000000000000018 126
1.7425623341689223  -9.7623609895940131 95.5970625843417849 1.2159373124562243 8.0000000000000036 127
1.7562351005312058  -9.7663611908041723 95.6679439267439591 1.2154035373690564 8.0000000000000000 128
1.7699083104980124  -9.7702630524428677 95.7372445221220119 1.2148677849886191 8.0000000000000000 129
1.7835819403318391  -9.7740707733486332 95.8050306783263750 1.2143301217096700 7.9999999999999982 130
1.7972559669832369  -9.7777883691086220 95.8713659285310911 1.2137906112511694 8.0000000000000000 131
1.8109303680703914  -9.7814196805927214 95.9363111530503971 1.2132493146808012 7.9999999999999982 132
1.8246051218591910  -9.7849683820671807 95.9999246956350305 1.2127062904474606 8.0000000000000000 133
1.8382802072437912  -9.7884379889088677 96.0622624744889890 1.2121615944206761 7.9999999999999982 134
1.8519556037276788  -9.7918318649404341 96.1233780882420490 1.2116152799360398 7.9999999999999929 135
1.8656312914052358  -9.7951532294054733 96.1833229171018047 1.2110673978458022 7.9999999999999947 136
1.8793072509438071  -9.7984051636018723 96.2421462194015476 1.2105179965738537 8.0000000000000036 137
1.8929834635662615  -9.8015906171908007 96.2998952237522872 1.2099671221744144 8.0000000000000000 138
1.9066599110340539  -9.8047124141977093 96.3566152169985628 1.2094148183938156 7.9999999999999991 139
1.9203365756307713  -9.8077732587208786 96.4123496281672487 1.2088611267347784 7.9999999999999982 140
1.9340134401461708  -9.8107757403623417 96.4671401085947480 1.2083060865227193 8.0000000000000000 141
1.9476904878606887  -9.8137223393953761 96.5210266084065012 1.2077497349736006 8.0000000000000000 142
1.9613677025304239  -9.8166154316817540 96.5740474495176215 1.2071921072629377 7.9999999999999991 143
1.9750450683725811  -9.8194572933514639 96.6262393953148973 1.2066332365955827 8.0000000000000036 144
1.9887225700513693  -9.8222501052568720 96.6776377171730985 1.2060731542759657 8.0000000000000018 145
2.0024001926643429  -9.8249959572128329 96.7282762579536950 1.2055118897785058 8.0000000000000018 146
2.0160779217291771  -9.8276968520334300 96.7781874926249372 1.2049494708179276 7.9999999999999929 147
2.0297557431708677  -9.8303547093756158 96.8274025861382768 1.2043859234192666 7.9999999999999982 148
2.0434336433093487  -9.8329713693995036 96.8759514486870472 1.2038212719873416 8.0000000000000036 149
2.0571116088475074  -9.8355485962545082 96.9238627884722916 1.2032555393755453 8.0000000000000000 150
2.0707896268595993  -9.8380880814001532 96.9711641620896785 1.2026887469537866 7.9999999999999947 151
2.0844676847800421  -9.8405914467696789 97.0178820226490757 1.2021209146754401 8.0000000000000036 152
2.0981457703925872  -9.8430602477843312 97.0640417657329095 1.2015520611431993 7.9999999999999982 153
2.1118238718198494  -9.8454959762260756 97.1096677732948876 1.2009822036737476 8.0000000000000036 154
2.1255019775131894  -9.8479000629752882 97.1547834555933889 1.2004113583611300 7.9999999999999964 155
2.1391800762429414  -9.8502738806206729 97.1994112912536536 1.1998395401387920 8.0000000000000000 156
2.1528581570889687  -9.8526187459472734 97.2435728655431859 1.1992667628401956 7.9999999999999982 157
2.1665362094315439  -9.8549359223089841 97.2872889069468272 1.1986930392579942 7.9999999999999964 158
2.1802142229425381  -9.8572266218911011 97.3305793221181119 1.1981183812017087 7.9999999999999973 159
2.1938921875769175  -9.8594920078682584 97.3734632292840132 1.1975427995538834 8.0000000000000036 160
2.2075700935645264  -9.8617331964630921 97.4159589901744596 1.1969663043247065 8.0000000000000036 161
2.2212479314021585  -9.8639512589104008 97.4580842405448209 1.1963889047050780 8.0000000000000036 162
2.2349256918459020  -9.8661472233313567 97.4998559193579410 1.1958106091181140 8.0000000000000018 163
2.2486033659037474  -9.8683220765223290 97.5412902966862703 1.1952314252690968 8.0000000000000000 164
2.2622809448284569  -9.8704767656623211 97.5824030003938105 1.1946513601938635 8.0000000000000000 165
2.2759584201106779  -9.8726121999430561 97.6232090416552296 1.1940704203056485 7.9999999999999964 166
2.2896357834723000  -9.8747292521254781 97.6637228393647234 1.1934886114403940 7.9999999999999964 167
2.3033130268600432  -9.8768287600261448 97.7039582434854594 1.1929059389005330 8.0000000000000000 168
2.3169901424392676  -9.8789115279369550 97.7439285573899639 1.1923224074972771 8.0000000000000000 169
2.3306671225880078  -9.8809783279814312 97.7836465592361037 1.1917380215914199 8.0000000000000036 170
2.3443439598912064  -9.8830299014105023 97.8231245224236261 1.1911527851326844 8.0000000000000000 171
2.3580206471351604  -9.8850669598408096 97.8623742351733767 1.1905667016976391 7.9999999999999982 172
2.3716971773021527  -9.8870901864381686 97.9014070192688735 1.1899797745262057 7.9999999999999982 173
2.3853735435652839  -9.8891002370488081 97.9402337479987466 1.1893920065567904 8.0000000000000036 174
2.3990497392834746  -9.8910977412809515 97.9788648633357582 1.1888034004600629 8.0000000000000000 175
2.4127257579966530  -9.8930833035390098 98.0173103923886941 1.1882139586714269 7.9999999999999982 176
2.4264015934211058  -9.8950575040125948 98.0555799631578680 1.1876236834221896 8.0000000000000000 177
2.4400772394449972  -9.8970208996225217 98.0936828196266362 1.1870325767694778 8.0000000000000000 178
2.4537526901240447  -9.8989740249258809 98.1316278362200904 1.1864406406249333 7.9999999999999973 179
2.4674279396773460  -9.9009173929819170 98.1694235316570598 1.1858478767822047 8.0000000000000000 180
2.4811029824833550  -9.9028514961807161 98.2070780822250526 1.1852542869432821 7.9999999999999964 181
2.4947778130759994  -9.9047768070363666 98.2445993345020838 1.1846598727436977 7.9999999999999991 182
2.5084524261409356  -9.9066937789461473 98.2819948175510092 1.1840646357766258 7.9999999999999964 183
2.5221268165119328  -9.9086028469175265 98.3192717546103694 1.1834685776159160 8.0000000000000000 184
2.5358009791673894  -9.9105044282641632 98.3564370743027183 1.1828716998380808 7.9999999999999929 185
2.5494749092269688  -9.9123989232727112 98.3934974213842111 1.1822740040432904 8.0000000000000000 186
2.5631486019483543  -9.9142867158413015 98.4304591670524047 1.1816754918753660 8.0000000000000018 187
2.5768220527241184  -9.9161681740914425 98.4673284188353506 1.1810761650408501 7.9999999999999982 188
2.5904952570787017  -9.9180436509542691 98.5041110300788603 1.1804760253271434 8.0000000000000000 189
2.6041682106654993  -9.9199134847323904 98.5408126090481460 1.1798750746197484 8.0000000000000000 190
2.6178409092640482  -9.9217779996384170 98.5774385276641993 1.1792733149186607 7.9999999999999982 191
2.6315133487773128  -9.9236375063113336 98.6139939298879256 1.1786707483539205 7.9999999999999982 192
2.6451855252290666  -9.9254923023115040 98.6504837397691858 1.1780673772003520 8.0000000000000018 193
2.6588574347613658  -9.9273426725954810 98.6869126691741201 1.1774632038915258 8.0000000000000000 194
2.6725290736321070  -9.9291888899713960 98.7232852252064674 1.1768582310329614 8.0000000000000036 195
2.6862004382126758  -9.9310312155358176 98.7596057173339688 1.1762524614145997 8.0000000000000000 196
