 # inv_tmp, energy, phys_var, phys_doublon, phys_num, step_i
0.0165730249850872  7.3219703826159233 99.2284903308948429 1.9655130255566360 7.9999999999999991 1
0.0329406531072940  6.5694993061845128 88.1440116254128441 1.9283517033738993 7.9999999999999982 2
0.0491130970211610  5.8329943759233940 78.1533039317410783 1.8919524892757296 8.0000000000000000 3
0.0651019028535795  5.1157270472911955 69.2468082236215281 1.8564840072590285 8.0000000000000018 4
0.0809195259516815  4.4204327399151886 61.3979092926932708 1.8220840493634722 7.9999999999999991 5
0.0965789076233099  3.7492676682156700 54.5653762532349731 1.7888585994512987 8.0000000000000000 6
0.1120930832621703  3.1038013000683535 48.6962144840669140 1.7568826879569193 8.0000000000000000 7
0.1274748448522037  2.4850404128700996 43.7286807458556979 1.7262027483531701 7.9999999999999991 8
0.1427364717297149  1.8934780867730083 39.5952354398984383 1.6968400500632255 8.0000000000000000 9
0.1578895344482157  1.3291597198320644 36.2252518832129908 1.6687947583015146 8.0000000000000000 10
0.1729447689901312  0.7917581522492239 33.5473599975414629 1.6420502065327591 7.9999999999999991 11
0.1879120131355440  0.2806509305586431 31.4913598155441612 1.6165770421016865 8.0000000000000000 12
0.2028001936838621  -0.2050057631131535 29.9896905538946008 1.5923369990793810 8.0000000000000000 13
0.2176173521590373  -0.6662103099998954 28.9784792278837848 1.5692861467529098 8.0000000000000000 14
0.2323706971135565  -1.1040581822560653 28.3982177294965297 1.5473775452250440 7.9999999999999991 15
0.2470666726234022  -1.5196946646739260 28.1941301650677900 1.5265633048240517 8.0000000000000000 16
0.2617110345354373  -1.9142776320200756 28.3162955468285418 1.5067960917337770 8.0000000000000018 17
0.2763089281057624  -2.2889495710407592 28.7195875485099421 1.4880301499537785 8.0000000000000000 18
0.2908649625970447  -2.6448176525270264 29.3634856542959355 1.4702219226393773 8.0000000000000000 19
0.3053832800436396  -2.9829405011432191 30.2118028153133089 1.4533303578758843 7.9999999999999991 20
0.3198676166919664  -3.3043203133818517 31.2323652249057417 1.4373169786451214 7.9999999999999991 21
0.3343213565851417  -3.6098990786264804 32.3966710089863454 1.4221457871910346 8.0000000000000018 22
0.3487475774240465  -3.9005578182641618 33.6795470184223547 1.4077830625043202 8.0000000000000000 23
0.3631490892556113  -4.1771179390567994 35.0588166950821858 1.3941970978438025 7.9999999999999991 24
0.3775284667695610  -4.4403439768143773 36.5149871380960604 1.3813579141247865 8.0000000000000000 25
0.3918880760789504  -4.6909471711611914 38.0309598787701901 1.3692369752066564 7.9999999999999982 26
0.4062300968612431  -4.9295894549263179 39.5917672848526792 1.3578069228533569 7.9999999999999982 27
0.4205565406800101  -5.1568875601173048 41.1843347504981239 1.3470413424549239 8.0000000000000000 28
0.4348692662184602  -5.3734170371635663 42.7972676948441801 1.3369145653883423 8.0000000000000018 29
0.4491699920533960  -5.5797160574061202 44.4206617237839794 1.3274015099932124 8.0000000000000000 30
0.4634603074941361  -5.7762889236948496 46.0459339710466153 1.3184775603444912 8.0000000000000000 31
0.4777416819131531  -5.9636092536600511 47.6656735204375082 1.3101184801201942 7.9999999999999991 32
0.4920154729078750  -6.1421228278279161 49.2735088415522569 1.3023003576987076 8.0000000000000000 33
0.5062829335581351  -6.3122501129928779 50.8639902887017712 1.2949995780111605 8.0000000000000018 34
0.5205452189814003  -6.4743884824753266 52.4324858766715280 1.2881928164765188 7.9999999999999982 35
0.5348033923374029  -6.6289141609928510 53.9750887299702811 1.2818570504423115 7.9999999999999991 36
0.5490584303939213  -6.7761839243753803 55.4885347868441912 1.2759695838469027 8.0000000000000018 37
0.5633112287346465  -6.9165365844332829 56.9701295149701039 1.2705080812351890 8.0000000000000000 38
0.5775626066668418  -7.0502942878244586 58.4176825566574962 1.2654506077413412 7.9999999999999982 39
0.5918133118693598  -7.1777636554069986 59.8294493650760231 1.2607756721574983 7.9999999999999982 40
0.6060640248092473  -7.2992367857648235 61.2040790190342889 1.2564622707059572 8.0000000000000018 41
0.6203153629465297  -7.4149921436665824 62.5405675129426015 1.2524899296039085 8.0000000000000000 42
0.6345678847408884  -7.5252953513652310 63.8382159122423261 1.2488387449411928 8.0000000000000000 43
0.6488220934700969  -7.6303998979895535 65.0965928445128128 1.2454894187757382 8.0000000000000018 44
0.6630784408676651  -7.7305477798846089 66.3155008644691009 1.2424232906853718 8.0000000000000036 45
0.6773373305857265  -7.8259700826516099 67.4949462888509970 1.2396223642986643 7.9999999999999982 46
0.6915991214884371  -7.9168875138190904 68.6351121463398783 1.2370693285636167 7.9999999999999982 47
0.7058641307808061  -8.0035108935307839 69.7363339294975333 1.2347475737048548 8.0000000000000000 48
0.7201326369777853  -8.0860416093363501 70.7990778714904536 1.2326412019719089 8.0000000000000000 49
0.7344048827184602  -8.1646720400901600 71.8239215010441825 1.2307350333977574 8.0000000000000018 50
0.7486810774302759  -8.2395859530711562 72.8115362555133458 1.2290146068728327 8.0000000000000018 51
0.7629613998483167  -8.3109588777048273 73.7626719548521663 1.2274661768997357 8.0000000000000000 52
0.7772460003947249  -8.3789584586705352 74.6781429592062409 1.2260767064321589 8.0000000000000000 53
0.7915350034233938  -8.4437447906906691 75.5588158502977194 1.2248338562219607 8.0000000000000000 54
0.8058285093350682  -8.5054707369026037 76.4055984921345015 1.2237259711044000 8.0000000000000018 55
0.8201265965679686  -8.5642822323930154 77.2194303401608266 1.2227420636462922 7.9999999999999982 56
0.8344293234690013  -8.6203185742130159 78.0012738800493537 1.2218717955679581 7.9999999999999982 57
0.8487367300505460  -8.6737126989799318 78.7521070881283265 1.2211054573295002 8.0000000000000000 58
0.8630488396377256  -8.7245914489982113 79.4729168151270358 1.2204339462471361 7.9999999999999982 59
0.8773656604109620  -8.7730758276902190 80.1646930036532979 1.2198487434775300 7.9999999999999982 60
0.8916871868485168  -8.8192812450111298 80.8284236577128041 1.2193418901785655 8.0000000000000000 61
0.9060134010736068  -8.8633177534268235 81.4650904897510202 1.2189059631249342 8.0000000000000000 62
0.9203442741105705  -8.9052902749545666 82.0756651772206993 1.2185340500269057 8.0000000000000000 63
0.9346797670544463  -8.9452988197013621 82.6611061666346387 1.2182197247714375 8.0000000000000000 64
0.9490198321582183  -8.9834386962808193 83.2223559685078840 1.2179570227767997 7.9999999999999982 65
0.9633644138418609  -9.0198007144450987 83.7603388915845670 1.2177404166254364 7.9999999999999982 66
0.9777134496272104  -9.0544713802315897 84.2759591693218368 1.2175647921151076 8.0000000000000000 67
0.9920668710025718  -9.0875330838937245 84.7700994358077224 1.2174254248455709 8.0000000000000000 68
1.0064246042208616  -9.1190642808605702 85.2436195121554476 1.2173179574372521 7.9999999999999982 69
1.0207865710349660  -9.1491396659492992 85.6973554679687055 1.2172383774594673 8.0000000000000000 70
1.0351526893738827  -9.1778303410382804 86.1321189257418069 1.2171829961288503 8.0000000000000000 71
1.0495228739631028  -9.2052039763951594 86.5486965790633604 1.2171484278235627 8.0000000000000000 72
1.0638970368925533  -9.2313249658435321 86.9478498982545602 1.2171315704455532 8.0000000000000000 73
1.0782750881353254  -9.2562545759433803 87.3303149996112325 1.2171295866514900 8.0000000000000000 74
1.0926569360202742  -9.2800510893537886 87.6968026567502790 1.2171398859629068 8.0000000000000000 75
1.1070424876614609  -9.3027699425411381 88.0479984346968649 1.2171601077574092 7.9999999999999991 76
1.1214316493472873  -9.3244638579920771 88.3845629293099364 1.2171881051354316 8.0000000000000000 77
1.1358243268920456  -9.3451829710872509 88.7071320964345063 1.2172219296508215 7.9999999999999991 78
1.1502204259524864  -9.3649749517895504 89.0163176568102870 1.2172598168884115 7.9999999999999991 79
1.1646198523118869  -9.3838851212985954 89.3127075642611743 1.2173001728675263 8.0000000000000000 80
1.1790225121339728  -9.4019565638216402 89.5968665260553223 1.2173415612470464 8.0000000000000018 81
1.1934283121889375  -9.4192302336098273 89.8693365655666696 1.2173826913050205 8.0000000000000000 82
1.2078371600536755  -9.4357450574074804 90.1306376184976443 1.2174224066638768 7.9999999999999991 83
1.2222489642882328  -9.4515380324609062 90.3812681549461843 1.2174596747308641 8.0000000000000000 84
1.2366636345903712  -9.4666443202320707 90.6217058205275805 1.2174935768224646 8.0000000000000000 85
1.2510810819300149  -9.4810973359611808 90.8524080906002780 1.2175232989410065 8.0000000000000036 86
1.2655012186652637  -9.4949288342206994 91.0738129324000454 1.2175481231715684 7.9999999999999982 87
1.2799239586415323  -9.5081689906019271 91.2863394705700415 1.2175674196674224 7.9999999999999982 88
1.2943492172752877  -9.5208464796732031 91.4903886521839240 1.2175806391926502 7.9999999999999973 89
1.3087769116237555  -9.5329885493472375 91.6863439079112936 1.2175873061911824 7.9999999999999982 90
1.3232069604418732  -9.5446210917925463 91.8745718064637202 1.2175870123522599 7.9999999999999982 91
1.3376392842276823  -9.5557687110219138 92.0554226999001628 1.2175794106432190 8.0000000000000000 92
1.3520738052572638  -9.5664547872881336 92.2292313577603409 1.2175642097814809 8.0000000000000000 93
1.3665104476102439  -9.5767015384147030 92.3963175883432513 1.2175411691187032 8.0000000000000000 94
1.3809491371868219  -9.5865300781862341 92.5569868457543237 1.2175100939111543 7.9999999999999991 95
1.3953898017171944  -9.5959604719204457 92.7115308216180551 1.2174708309515239 7.9999999999999991 96
1.4098323707641887  -9.6050117893404607 92.8602280205920607 1.2174232645385534 8.0000000000000036 97
1.4242767757198507  -9.6137021548628994 93.0033443190280593 1.2173673127620255 7.9999999999999982 98
1.4387229497966731  -9.6220487954142087 93.1411335063118173 1.2173029240818320 8.0000000000000000 99
1.4531708280140938  -9.6300680858838810 93.2738378085703630 1.2172300741809514 8.0000000000000000 100
1.4676203471808420  -9.6377755923203239 93.4016883945787271 1.2171487630733355 7.9999999999999982 101
1.4820714458736566  -9.6451861129713521 93.5249058638142969 1.2170590124487455 8.0000000000000000 102
1.4965240644128608  -9.6523137172679245 93.6437007167126865 1.2169608632376694 7.9999999999999982 103
1.5109781448352337  -9.6591717828463928 93.7582738072657520 1.2168543733804578 8.0000000000000000 104
1.5254336308645702  -9.6657730307009526 93.8688167781769636 1.2167396157857953 8.0000000000000018 105
1.5398904678803005  -9.6721295585546176 93.9755124788518401 1.2166166764645616 7.9999999999999991 106
1.5543486028844875  -9.6782528725337365 94.0785353665532398 1.2164856528260415 8.0000000000000000 107
1.5688079844675087  -9.6841539172275422 94.1780518910927924 1.2163466521242690 8.0000000000000000 108
1.5832685627726784  -9.6898431042111746 94.2742208634653309 1.2161997900431358 8.0000000000000036 109
1.5977302894600578  -9.6953303391071852 94.3671938088586870 1.2160451894096198 8.0000000000000000 110
1.6121931176696676  -9.7006250472575317 94.4571153044931151 1.2158829790252572 8.0000000000000000 111
1.6266570019842901  -9.7057361980748844 94.5441233027580665 1.2157132926066139 8.0000000000000000 112
1.6411218983920415  -9.7106723281390934 94.6283494401259162 1.2155362678262054 8.0000000000000000 113
1.6555877642488577  -9.7154415631018516 94.7099193323272885 1.2153520454458859 8.0000000000000000 114
1.6700545582410347  -9.7200516384595357 94.7889528562748183 1.2151607685353052 8.0000000000000000 115
1.6845222403479405  -9.7245099192516804 94.8655644192230341 1.2149625817685712 8.0000000000000018 116
1.6989907718050057  -9.7288234187397649 94.9398632156464544 1.2147576307927412 7.9999999999999982 117
1.7134601150670770  -9.7329988161184993 95.0119534723156676 1.2145460616622503 8.0000000000000018 118
1.7279302337722247  -9.7370424733091951 95.0819346820400426 1.2143280203337967 8.0000000000000000 119
1.7424010927060591  -9.7409604508826657 95.1499018265411536 1.2141036522166413 7.9999999999999982 120
1.7568726577666252  -9.7447585231565270 95.2159455889068340 1.2138731017736279 8.0000000000000018 121
1.7713448959299216  -9.7484421925097546 95.2801525560675486 1.2136365121686032 8.0000000000000018 122
1.7858177752160804  -9.7520167029553040 95.3426054117242074 1.2133940249562509 8.0000000000000000 123
1.8002912646562517  -9.7554870530092899 95.4033831201426494 1.2131457798106324 8.0000000000000018 124
1.8147653342602108  -9.7588580078936253 95.4625611012191087 1.2128919142890449 8.0000000000000000 125
1.8292399549847187  -9.7621341111069242 95.5202113972063671 1.2126325636280486 7.9999999999999991 126
1.8437150987026445  -9.7653196953968813 95.5764028314775516 1.2123678605687749 8.0000000000000000 127
1.8581907381728680  -9.7684188931654496 95.6312011596901925 1.2120979352088441 7.9999999999999991 128
1.8726668470109689  -9.7714356463367373 95.6846692137009285 1.2118229148784461 7.9999999999999982 129
1.8871433996607010  -9.7743737157158730 95.7368670385666860 1.2115429240383162 8.0000000000000000 130
1.9016203713662643  -9.7772366898656333 95.7878520229550361 1.2112580841975371 8.0000000000000018 131
1.9160977381453588  -9.7800279935263106 95.8376790232744895 1.2109685138492561 8.0000000000000000 132
1.9305754767630277  -9.7827508956028879 95.8864004818210844 1.2106743284225652 7.9999999999999991 133
1.9450535647062748  -9.7854085167423221 95.9340665392258813 1.2103756402489299 8.0000000000000000 134
1.9595319801594564  -9.7880038365226341 95.9807251414759719 1.2100725585416972 7.9999999999999991 135
1.9740107019804249  -9.7905397002742554 96.0264221417696717 1.2097651893873289 8.0000000000000018 136
1.9884897096774259  -9.7930188255530126 96.0712013974538621 1.2094536357471113 7.9999999999999982 137
2.0029689833867272  -9.7954438082832276 96.1151048622825783 1.2091379974682219 8.0000000000000000 138
2.0174485038509720  -9.7978171285881608 96.1581726742222003 1.2088183713030958 7.9999999999999982 139
2.0319282523982314  -9.8001411563244822 96.2004432390215953 1.2084948509361622 7.9999999999999991 140
2.0464082109217592  -9.8024181563361683 96.2419533097518354 1.2081675270170660 7.9999999999999982 141
2.0608883618604108  -9.8046502934427302 96.2827380625138289 1.2078364871995970 8.0000000000000000 142
2.0753686881797329  -9.8068396371756403 96.3228311685003575 1.2075018161855948 7.9999999999999982 143
2.0898491733536830  -9.8089881662762863 96.3622648625921414 1.2071635957731837 8.0000000000000018 144
2.1043298013469895  -9.8110977729678410 96.4010700086566032 1.2068219049087234 8.0000000000000018 145
2.1188105565981101  -9.8131702670130156 96.4392761617129679 1.2064768197419522 8.0000000000000000 146
2.1332914240027887  -9.8152073795688146 96.4769116271164222 1.2061284136838091 7.9999999999999982 147
2.1477723888981863  -9.8172107668489481 96.5140035169084314 1.2057767574665028 8.0000000000000018 148
2.1622534370475726  -9.8191820136038821 96.5505778034724358 1.2054219192054110 8.0000000000000018 149
2.1767345546255594  -9.8211226364281305 96.5866593706282117 1.2050639644624535 8.0000000000000000 150
2.1912157282038600  -9.8230340869036397 96.6222720622896674 1.2047029563106002 7.9999999999999991 151
2.2056969447375603  -9.8249177545878972 96.6574387288073495 1.2043389553992210 8.0000000000000000 152
2.2201781915518808  -9.8267749698546858 96.6921812711080975 1.2039720200200030 8.0000000000000018 153
2.2346594563294242  -9.8286070065952487 96.7265206827415511 1.2036022061732061 7.9999999999999982 154
2.2491407270978776  -9.8304150847869529 96.7604770899354492 1.2032295676340290 8.0000000000000000 155
2.2636219922181700  -9.8322003729362937 96.7940697897573159 1.2028541560188968 7.9999999999999991 156
2.2781032403730581  -9.8339639904027969 96.8273172864765144 1.2024760208515055 8.0000000000000018 157
2.2925844605561374  -9.8357070096097701 96.8602373262134506 1.2020952096284603 8.0000000000000018 158
2.3070656420612523  -9.8374304581478356 96.8928469299607542 1.2017117678843805 7.9999999999999982 159
2.3215467744723006  -9.8391353207766556 96.9251624250560440 1.2013257392563528 8.0000000000000000 160
2.3360278476534191  -9.8408225413299970 96.9571994751807154 1.2009371655476175 7.9999999999999982 161
2.3505088517395283  -9.8424930245291762 96.9889731089585609 1.2005460867904185 7.9999999999999982 162
2.3649897771272355  -9.8441476377093604 97.0204977472204035 1.2001525413079119 7.9999999999999982 163
2.3794706144660758  -9.8457872124632964 97.0517872290011496 1.1997565657750902 7.9999999999999982 164
2.3939513546500839  -9.8474125462065061 97.0828548363299149 1.1993581952786476 8.0000000000000018 165
2.4084319888096788  -9.8490244036679790 97.1137133178718415 1.1989574633757427 8.0000000000000000 166
2.4229125083038618  -9.8506235183100799 97.1443749114777404 1.1985544021516263 7.9999999999999991 167
2.4373929047127039  -9.8522105936812014 97.1748513656933426 1.1981490422760868 8.0000000000000000 168
2.4518731698301210  -9.8537863047045313 97.2051539602791763 1.1977414130586985 8.0000000000000000 169
2.4663532956569227  -9.8553512989061360 97.2352935257881796 1.1973315425028486 7.9999999999999982 170
2.4808332743941293  -9.8569061975853529 97.2652804622464942 1.1969194573585287 8.0000000000000000 171
2.4953130984365397  -9.8584515969303261 97.2951247569803002 1.1965051831738800 8.0000000000000000 172
2.5097927603665524  -9.8599880690814814 97.3248360016297624 1.1960887443454888 8.0000000000000018 173
2.5242722529482164  -9.8615161631454100 97.3544234083885129 1.1956701641674288 8.0000000000000000 174
2.5387515691215188  -9.8630364061616600 97.3838958255061300 1.1952494648790564 8.0000000000000000 175
2.5532307019968910  -9.8645493040247185 97.4132617520880331 1.1948266677115573 8.0000000000000000 176
2.5677096448499253  -9.8660553423633921 97.4425293522265719 1.1944017929332587 8.0000000000000018 177
2.5821883911163011  -9.8675549873796236 97.4717064684945171 1.1939748598937141 7.9999999999999973 178
2.5966669343869095  -9.8690486866488278 97.5008006348321885 1.1935458870665774 7.9999999999999982 179
2.6111452684031637  -9.8705368698834146 97.5298190888547367 1.1931148920912715 8.0000000000000000 180
2.6256233870524994  -9.8720199496615031 97.5587687836092101 1.1926818918134796 7.9999999999999982 181
2.6401012843640506  -9.8734983221223551 97.5876563988056063 1.1922469023244668 7.9999999999999982 182
2.6545789545044962  -9.8749723676301784 97.6164883515471047 1.1918099389992578 7.9999999999999982 183
2.6690563917740717  -9.8764424514078293 97.6452708065830137 1.1913710165336835 8.0000000000000036 184
2.6835335906027411  -9.8779089241418099 97.6740096861061033 1.1909301489803203 7.9999999999999991 185
2.6980105455465213  -9.8793721225600315 97.7027106791168194 1.1904873497833512 8.0000000000000000 186
2.7124872512839535  -9.8808323699834766 97.7313792503725551 1.1900426318123514 8.0000000000000018 187
2.7269637026127183  -9.8822899768531638 97.7600206489429979 1.1895960073950393 8.0000000000000000 188
2.7414398944463891  -9.8837452412335018 97.7886399163888314 1.1891474883490083 8.0000000000000000 189
2.7559158218113153  -9.8851984492931333 97.8172418945814570 1.1886970860124579 8.0000000000000000 190
2.7703914798436342  -9.8866498757643946 97.8458312331800357 1.1882448112739545 7.9999999999999991 191
2.7848668637864069  -9.8880997843823337 97.8744123967819633 1.1877906746012403 8.0000000000000000 192
2.7993419689868726  -9.8895484283042698 97.9029896717614179 1.1873346860691134 8.0000000000000000 193
2.8138167908938141  -9.8909960505108394 97.9315671728105599 1.1868768553864051 7.9999999999999991 194
2.8282913250550386  -9.8924428841893146 97.9601488491967132 1.1864171919220734 7.9999999999999991 195
2.8427655671149603  -9.8938891531000905 97.9887384907485739 1.1859557047304352 8.0000000000000000 196
