 # inv_tmp, energy, phys_var, phys_doublon, phys_num, step_i
0.0155443448304767  7.3358445266384145 98.7619081939968879 1.9675058437831168 8.0000000000000000 1
0.0309214667800408  6.6400304858139600 88.4935548759579547 1.9340595893119399 7.9999999999999982 2
0.0461386098828436  5.9570703314346538 79.1616197714068335 1.9011952745059411 8.0000000000000000 3
0.0612039577359209  5.2894986543531317 70.7665997227387606 1.8690266662902497 8.0000000000000000 4
0.0761263228666730  4.6393927431131754 63.2941022195103997 1.8376495281121423 8.0000000000000000 5
0.0909148546147464  4.0083683700507944 56.7169880457107212 1.8071414702811741 8.0000000000000000 6
0.1055787810427567  3.3975976827165986 50.9977699295636029 1.7775625761996676 8.0000000000000000 7
0.1201271945771661  2.8078443326828300 46.0910681235461368 1.7489566336620841 7.9999999999999982 8
0.1345688855127219  2.2395104825453291 41.9459597548436989 1.7213527857267725 8.0000000000000036 9
0.1489122228368335  1.6926905059066029 38.5081037061871356 1.6947674227057421 8.0000000000000000 10
0.1631650783756308  1.1672268415631482 35.7215686237926420 1.6692061591678165 8.0000000000000000 11
0.1773347880882503  0.6627643750506529 33.5303325013921665 1.6446657707549592 8.0000000000000000 12
0.1914281433035545  0.1788007170353410 31.8794547750388979 1.6211359992188177 7.9999999999999964 13
0.2054514045627527  -0.2852693053638055 30.7159448416068663 1.5986011660756785 8.0000000000000018 14
0.2194103312309420  -0.7301158140237027 29.9893648854964887 1.5770415629834069 8.0000000000000036 15
0.2333102209198651  -1.1564429275090238 29.6522113360709270 1.5564346091223682 8.0000000000000018 16
0.2471559538201387  -1.5649644464668786 29.6601200517513526 1.5367557823269455 8.0000000000000000 17
0.2609520381263283  -1.9563856196907734 29.9719372894777187 1.5179793419434935 8.0000000000000000 18
0.2747026537565757  -2.3313902517782972 30.5496932690068377 1.5000788682004389 7.9999999999999991 19
0.2884116924658412  -2.6906323318965524 31.3585089216564370 1.4830276461869740 8.0000000000000000 20
0.3020827932044328  -3.0347313545155745 32.3664600991346134 1.4667989232281273 8.0000000000000000 21
0.3157193721777769  -3.3642705434757199 33.5444176670973420 1.4513660672824533 8.0000000000000036 22
0.3293246475278223  -3.6797972618001120 34.8658768250697264 1.4367026516024433 8.0000000000000000 23
0.3429016588958730  -3.9818249773351946 36.3067848017004806 1.4227824877811799 7.9999999999999982 24
0.3564532823584396  -4.2708362486654989 37.8453727724872451 1.4095796258381028 8.0000000000000000 25
0.3699822413697115  -4.5472862899872375 39.4619953629168592 1.3970683364517251 8.0000000000000000 26
0.3834911144135457  -4.8116067632481299 41.1389793218348956 1.3852230870298521 8.0000000000000018 27
0.3969823400801373  -5.0642095280497603 42.8604817520909336 1.3740185201588428 8.0000000000000000 28
0.4104582202519421  -5.3054901529300604 44.6123575438077182 1.3634294401844584 8.0000000000000000 29
0.4239209220224048  -5.5358310548987930 46.3820352562735891 1.3534308112998990 7.9999999999999973 30
0.4373724788903959  -5.7556041872881352 48.1584005390284631 1.3439977685721445 8.0000000000000000 31
0.4508147916820578  -5.9651732393392845 49.9316861898252782 1.3351056418204443 7.9999999999999982 32
0.4642496295574233  -6.1648953450299473 51.6933680523457397 1.3267299911459336 8.0000000000000018 33
0.4776786313675112  -6.3551223242450412 53.4360661110236990 1.3188466521593165 7.9999999999999973 34
0.4911033075429017  -6.5362014974516542 55.1534503090312214 1.3114317885157065 8.0000000000000000 35
0.5045250426199408  -6.7084761266006598 56.8401507749090342 1.3044619491877965 8.0000000000000000 36
0.5179450984473937  -6.8722855411209025 58.4916722793026196 1.2979141279359114 7.9999999999999982 37
0.5313646180651922  -7.0279650096606359 60.1043128487926026 1.2917658226129831 8.0000000000000018 38
0.5447846302077216  -7.1758454166727796 61.6750865371357264 1.2859950922260723 8.0000000000000000 39
0.5582060543560672  -7.3162527989525996 63.2016503971855599 1.2805806100215618 8.0000000000000000 40
0.5716297062455881  -7.4495077916236152 64.6822357133782759 1.2755017112337044 8.0000000000000000 41
0.5850563037256402  -7.5759250265107125 66.1155835501088518 1.2707384345082968 7.9999999999999982 42
0.5984864728656876  -7.6958125188906852 67.5008846510696117 1.2662715563644245 7.9999999999999964 43
0.6119207542048888  -7.8094710716986899 68.8377236939230102 1.2620826183734757 7.9999999999999991 44
0.6253596090490947  -7.9171937197089370 70.1260278681814384 1.2581539470075782 8.0000000000000018 45
0.6388034257287621  -8.0192652302141685 71.3660197057417918 1.2544686663353906 8.0000000000000036 46
0.6522525257425019  -8.1159616714302985 72.5581740561846829 1.2510107039214764 8.0000000000000000 47
0.6657071697229334  -8.2075500553119944 73.7031790648984924 1.2477647904186484 8.0000000000000000 48
0.6791675631735243  -8.2942880576901619 74.8019009827682453 1.2447164534347197 7.9999999999999982 49
0.6926338619366252  -8.3764238156029212 75.8553526123906181 1.2418520063111795 8.0000000000000000 50
0.7061061773636055  -8.4541957993318402 76.8646651778371535 1.2391585324769765 8.0000000000000000 51
0.7195845811676208  -8.5278327549018478 77.8310633927908953 1.2366238660415056 7.9999999999999982 52
0.7330691099479770  -8.5975537115762322 78.7558434950539379 1.2342365692723771 8.0000000000000000 53
0.7465597693822528  -8.6635680480954971 79.6403540134053287 1.2319859075704975 7.9999999999999982 54
0.7600565380883317  -8.7260756109910531 80.4859790349236732 1.2298618225117492 8.0000000000000000 55
0.7735593711633405  -8.7852668781782555 81.2941237464677613 1.2278549034746695 8.0000000000000000 56
0.7870682034102788  -8.8413231611323031 82.0662020323466521 1.2259563583201860 7.9999999999999973 57
0.8005829522659931  -8.8944168392172962 82.8036259206440093 1.2241579835349048 8.0000000000000000 58
0.8141035204461829  -8.9447116201243606 83.5077966825971885 1.2224521341956791 7.9999999999999982 59
0.8276297983244748  -8.9923628208389310 84.1800974023518762 1.2208316940615374 8.0000000000000000 60
0.8411616660633596  -9.0375176640663426 84.8218868478579680 1.2192900460504656 8.0000000000000018 61
0.8546989955150738  -9.0803155855740094 85.4344944872882479 1.2178210433137449 7.9999999999999973 62
0.8682416519104028  -9.1208885484365361 86.0192165088348588 1.2164189810798109 8.0000000000000036 63
0.8817894953529959  -9.1593613606831852 86.5773127148438704 1.2150785694031063 8.0000000000000036 64
0.8953423821361506  -9.1958519933344292 87.1100041738148718 1.2137949069211811 7.9999999999999982 65
0.9089001658982520  -9.2304718962686554 87.6184715256835602 1.2125634556950822 7.9999999999999982 66
0.9224626986321511  -9.2633263097773781 88.1038538469529726 1.2113800171837734 8.0000000000000000 67
0.9360298315628068  -9.2945145700460490 88.5672479925862319 1.2102407093826182 8.0000000000000000 68
0.9496014159065181  -9.3241304071361686 89.0097083411070003 1.2091419451384722 8.0000000000000018 69
0.9631773035240703  -9.3522622343450355 89.4322468780703730 1.2080804116394477 8.0000000000000000 70
0.9767573474791292  -9.3789934280828930 89.8358335609929384 1.2070530510655360 7.9999999999999973 71
0.9903414025122570  -9.4044025976363148 90.2213969159925853 1.2060570423767183 8.0000000000000018 72
1.0039293254399997  -9.4285638443836195 90.5898248228260030 1.2050897842076562 7.9999999999999982 73
1.0175209754876324  -9.4515470101961405 90.9419654507783264 1.2041488788322978 8.0000000000000018 74
1.0311162145633184  -9.4734179149006543 91.2786283129884737 1.2032321171574019 8.0000000000000000 75
1.0447149074806907  -9.4942385827967115 91.6005854113559508 1.2023374647010219 7.9999999999999982 76
1.0583169221361417  -9.5140674583198752 91.9085724481980293 1.2014630485099891 8.0000000000000036 77
1.0719221296464729  -9.5329596110212282 92.2032900843763770 1.2006071449694073 8.0000000000000000 78
1.0855304044519460  -9.5509669300969975 92.4854052267282611 1.1997681684568211 7.9999999999999982 79
1.0991416243892487  -9.5681383087515446 92.7555523303574034 1.1989446607939700 7.9999999999999982 80
1.1127556707383839  -9.5845198187152256 93.0143347037214312 1.1981352814497788 8.0000000000000000 81
1.1263724282470478  -9.6001548752663481 93.2623258065136866 1.1973387984493309 7.9999999999999982 82
1.1399917851356638  -9.6150843931259526 93.5000705321290582 1.1965540799449583 7.9999999999999982 83
1.1536136330858682  -9.6293469336063957 93.7280864680464845 1.1957800864071630 8.0000000000000000 84
1.1672378672149237  -9.6429788434012949 93.9468651287924530 1.1950158633948580 8.0000000000000000 85
1.1808643860382446  -9.6560143854058680 94.1568731572880324 1.1942605348662383 7.9999999999999982 86
1.1944930914219476  -9.6684858619542453 94.3585534913570996 1.1935132969935163 8.0000000000000000 87
1.2081238885271270  -9.6804237308549208 94.5523264930009901 1.1927734124466725 8.0000000000000036 88
1.2217566857473212  -9.6918567145972929 94.7385910387472734 1.1920402051133174 8.0000000000000018 89
1.2353913946404760  -9.7028119030921900 94.9177255699713811 1.1913130552236446 7.9999999999999991 90
1.2490279298565286  -9.7133148502977829 95.0900891025849972 1.1905913948513356 7.9999999999999982 91
1.2626662090616012  -9.7233896650696394 95.2560221958982538 1.1898747037630661 7.9999999999999982 92
1.2763061528596567  -9.7330590965603907 95.4158478808041082 1.1891625055910329 7.9999999999999991 93
1.2899476847123605  -9.7423446144804267 95.5698725477114692 1.1884543643045560 8.0000000000000000 94
1.3035907308577865  -9.7512664845173695 95.7183867948816385 1.1877498809584559 8.0000000000000018 95
1.3172352202285198  -9.7598438391975009 95.8616662380023996 1.1870486906973703 8.0000000000000036 96
1.3308810843696299  -9.7680947444585868 95.9999722819772359 1.1863504599966634 7.9999999999999982 97
1.3445282573569122  -9.7760362621897379 96.1335528560166495 1.1856548841219090 8.0000000000000000 98
1.3581766757157476  -9.7836845089801443 96.2626431131991467 1.1849616847902142 8.0000000000000000 99
1.3718262783408637  -9.7910547113058755 96.3874660957284561 1.1842706080178738 8.0000000000000000 100
1.3854770064172395  -9.7981612573707668 96.5082333671520587 1.1835814221399459 8.0000000000000000 101
1.3991288033423568  -9.8050177458055465 96.6251456128253778 1.1828939159884151 8.0000000000000000 102
1.4127816146499608  -9.8116370314174972 96.7383932099173620 1.1822078972165979 8.0000000000000000 103
1.4264353879354639  -9.8180312681716515 96.8481567682460422 1.1815231907583477 8.0000000000000018 104
1.4400900727830974  -9.8242119495741047 96.9546076432234543 1.1808396374115053 8.0000000000000000 105
1.4537456206948953  -9.8301899466175424 97.0579084221658661 1.1801570925358074 7.9999999999999982 106
1.4674019850215663  -9.8359755434396980 97.1582133852013925 1.1794754248562374 8.0000000000000000 107
1.4810591208953039  -9.8415784708360974 97.2556689419746192 1.1787945153634669 8.0000000000000018 108
1.4947169851645579  -9.8470079377600204 97.3504140453145794 1.1781142563037068 7.9999999999999982 109
1.5083755363307809  -9.8522726609342755 97.4425805829939691 1.1774345502508454 7.9999999999999982 110
1.5220347344871568  -9.8573808926916158 97.5322937486688630 1.1767553092543297 8.0000000000000000 111
1.5356945412593033  -9.8623404471536720 97.6196723930478072 1.1760764540567388 8.0000000000000000 112
1.5493549197479277  -9.8671587248511408 97.7048293562986885 1.1753979133754837 8.0000000000000000 113
1.5630158344734244  -9.8718427358815326 97.7878717826579305 1.1747196232434785 7.9999999999999982 114
1.5766772513223752  -9.8763991216951066 97.8689014181691022 1.1740415264040687 8.0000000000000000 115
1.5903391374959306  -9.8808341755933640 97.9480148924326386 1.1733635717558286 8.0000000000000000 116
1.6040014614600231  -9.8851538620197239 98.0253039852125312 1.1726857138432292 8.0000000000000000 117
1.6176641928973867  -9.8893638347165957 98.1008558787026743 1.1720079123894611 7.9999999999999982 118
1.6313273026613235  -9.8934694538185397 98.1747533962200265 1.1713301318680058 8.0000000000000000 119
1.6449907627311910  -9.8974758019468183 98.2470752280514859 1.1706523411098120 7.9999999999999991 120
1.6586545461695479  -9.9013876993664827 98.3178961451490352 1.1699745129431949 8.0000000000000000 121
1.6723186270809220  -9.9052097182632597 98.3872872013289737 1.1692966238637861 7.9999999999999982 122
1.6859829805721458  -9.9089461961940000 98.4553159246001428 1.1686186537320959 7.9999999999999982 123
1.6996475827142181  -9.9126012487608666 98.5220464982128590 1.1679405854964209 7.9999999999999982 124
1.7133124105056368  -9.9161787815564928 98.5875399319896246 1.1672624049390377 8.0000000000000036 125
1.7269774418371582  -9.9196825014242584 98.6518542244682095 1.1665841004437605 8.0000000000000018 126
1.7406426554579355  -9.9231159270749920 98.7150445163620986 1.1659056627831199 7.9999999999999973 127
1.7543080309429879  -9.9264823990990401 98.7771632358126936 1.1652270849235391 7.9999999999999982 128
1.7679735486619523  -9.9297850894098421 98.8382602358846185 1.1645483618470176 7.9999999999999982 129
1.7816391897490791  -9.9330270101533102 98.8983829247308677 1.1638694903879752 8.0000000000000018 130
1.7953049360744135  -9.9362110221148310 98.9575763888300060 1.1631904690839778 8.0000000000000018 131
1.8089707702161359  -9.9393398426538706 99.0158835096765699 1.1625112980392078 7.9999999999999991 132
1.8226366754340018  -9.9424160531943357 99.0733450742855410 1.1618319787996052 8.0000000000000000 133
1.8363026356438503  -9.9454421062969196 99.1299998798488815 1.1611525142387062 7.9999999999999982 134
1.8499686353931386  -9.9484203323382641 99.1858848328686520 1.1604729084532892 8.0000000000000000 135
1.8636346598374571  -9.9513529458200463 99.2410350430669723 1.1597931666679904 8.0000000000000018 136
1.8773006947179964  -9.9542420513297714 99.2954839123622861 1.1591132951481438 8.0000000000000000 137
1.8909667263399186  -9.9570896491736960 99.3492632191806990 1.1584333011201415 8.0000000000000000 138
1.9046327415516053  -9.9598976407009818 99.4024031983587264 1.1577531926986748 8.0000000000000000 139
1.9182987277247439  -9.9626678333371128 99.4549326168791623 1.1570729788202720 8.0000000000000000 140
1.9319646727352173  -9.9654019453434994 99.5068788456672735 1.1563926691825930 8.0000000000000000 141
1.9456305649447663  -9.9681016103189890 99.5582679276625981 1.1557122741889767 7.9999999999999982 142
1.9592963931833947  -9.9707683814583348 99.6091246423697640 1.1550318048978017 8.0000000000000000 143
1.9729621467324814  -9.9734037355814458 99.6594725670790353 1.1543512729762218 7.9999999999999982 144
1.9866278153085788  -9.9760090769467382 99.7093341349395956 1.1536706906579184 8.0000000000000000 145
2.0002933890478607  -9.9785857408607335 99.7587306900530137 1.1529900707044853 7.9999999999999964 146
2.0139588584911956  -9.9811349970956993 99.8076825397523777 1.1523094263701603 7.9999999999999982 147
2.0276242145698267  -9.9836580531260992 99.8562090042151596 1.1516287713695734 8.0000000000000018 148
2.0412894485916198  -9.9861560571941386 99.9043284635564959 1.1509481198482598 8.0000000000000000 149
2.0549545522278656  -9.9886301012141434 99.9520584025376877 1.1502674863556885 7.9999999999999982 150
2.0686195175006103  -9.9910812235246844 99.9994154530170221 1.1495868858205649 8.0000000000000018 151
2.0822843367704915  -9.9935104114970681 100.0464154342653416 1.1489063335282099 8.0000000000000000 152
2.0959490027250589  -9.9959186040082564 100.0930733912598356 1.1482258450998235 8.0000000000000000 153
2.1096135083675587  -9.9983066937856560 100.1394036310639564 1.1475454364734490 7.9999999999999982 154
2.1232778470061611  -10.0006755296309819 100.1854197573954082 1.1468651238864889 7.9999999999999982 155
2.1369420122436167  -10.0030259185298043 100.2311347034783751 1.1461849238596109 7.9999999999999982 156
2.1506059979673164  -10.0053586276531910 100.2765607632707088 1.1455048531819270 8.0000000000000000 157
2.1642697983397441  -10.0076743862572624 100.3217096211526496 1.1448249288973074 8.0000000000000000 158
2.1779334077893022  -10.0099738874862609 100.3665923801567033 1.1441451682917252 7.9999999999999982 159
2.1915968210014949  -10.0122577900845329 100.4112195888171755 1.1434655888815293 8.0000000000000000 160
2.2052600329104513  -10.0145267200221433 100.4556012667097207 1.1427862084025457 8.0000000000000036 161
2.2189230386907810  -10.0167812720390597 100.4997469287515486 1.1421070447999313 8.0000000000000000 162
2.2325858337497375  -10.0190220111121011 100.5436656083247868 1.1414281162186928 7.9999999999999982 163
2.2462484137196883  -10.0212494738489042 100.5873658792857128 1.1407494409948076 8.0000000000000036 164
2.2599107744508662  -10.0234641698128133 100.6308558769166268 1.1400710376468737 8.0000000000000000 165
2.2735729120043988  -10.0256665827823959 100.6741433178761014 1.1393929248682462 8.0000000000000000 166
2.2872348226456016  -10.0278571719489893 100.7172355191976152 1.1387151215195788 7.9999999999999982 167
2.3008965028375217  -10.0300363730557365 100.7601394163874460 1.1380376466217590 8.0000000000000036 168
2.3145579492347230  -10.0322045994809148 100.8028615806657342 1.1373605193491514 7.9999999999999982 169
2.3282191586773022  -10.0343622432689408 100.8454082353973291 1.1366837590231573 7.9999999999999991 170
2.3418801281851276  -10.0365096761112262 100.8877852717500190 1.1360073851060011 7.9999999999999982 171
2.3555408549522854  -10.0386472502801034 100.9299982636234034 1.1353314171947611 7.9999999999999991 172
2.3692013363417308  -10.0407752995177955 100.9720524818816187 1.1346558750155791 8.0000000000000018 173
2.3828615698801348  -10.0428941398830212 101.0139529079278589 1.1339807784180433 8.0000000000000000 174
2.3965215532529118  -10.0450040705573773 101.0557042466523114 1.1333061473697135 7.9999999999999964 175
2.4101812842994277  -10.0471053746135848 101.0973109387851849 1.1326320019507683 8.0000000000000018 176
2.4238407610083774  -10.0491983197473900 101.1387771726843141 1.1319583623487475 8.0000000000000000 177
2.4374999815133260  -10.0512831589753571 101.1801068955869454 1.1312852488533964 7.9999999999999982 178
2.4511589440884016  -10.0533601312998595 101.2213038243498602 1.1306126818515667 7.9999999999999982 179
2.4648176471441410  -10.0554294623432749 101.2623714557051358 1.1299406818221829 8.0000000000000000 180
2.4784760892234781  -10.0574913649527335 101.3033130760551757 1.1292692693312527 8.0000000000000000 181
2.4921342689978667  -10.0595460397770413 101.3441317708280849 1.1285984650269154 8.0000000000000000 182
2.5057921852635334  -10.0615936758170896 101.3848304334174060 1.1279282896345171 8.0000000000000018 183
2.5194498369378597  -10.0636344509511222 101.4254117737239085 1.1272587639517027 8.0000000000000000 184
2.5331072230558811  -10.0656685324361028 101.4658783263210893 1.1265899088435267 7.9999999999999982 185
2.5467643427668984  -10.0676960773863957 101.5062324582610245 1.1259217452375672 7.9999999999999982 186
2.5604211953312053  -10.0697172332308309 101.5464763765384362 1.1252542941190424 8.0000000000000000 187
2.5740777801169159  -10.0717321381492493 101.5866121352295579 1.1245875765259290 8.0000000000000000 188
2.5877340965968969  -10.0737409214895930 101.6266416423213172 1.1239216135440746 8.0000000000000000 189
2.6013901443457903  -10.0757437041663689 101.6665666662456573 1.1232564263023035 7.9999999999999991 190
2.6150459230371368  -10.0777405990415261 101.7063888421326254 1.1225920359675150 8.0000000000000000 191
2.6287014324405824  -10.0797317112884866 101.7461096777959568 1.1219284637397688 8.0000000000000000 192
2.6423566724191692  -10.0817171387402560 101.7857305594638717 1.1212657308473644 7.9999999999999982 193
2.6560116429267118  -10.0836969722222740 101.8252527572666821 1.1206038585419056 8.0000000000000000 194
2.6696663440052490  -10.0856712958708119 101.8646774304926339 1.1199428680933550 7.9999999999999982 195
