 # inv_tmp, energy, phys_var, phys_doublon, phys_num, step_i
0.0155325753650025  7.2383521082836353 97.6975336033334827 1.9420778932068372 8.0000000000000000 1
0.0308969708930186  6.5374706844214181 87.5205585223018971 1.9063096615927737 7.9999999999999991 2
0.0461003326906343  5.8490954444033854 78.2995721611902127 1.8712053668991047 8.0000000000000000 3
0.0611506720484083  5.1755996783319320 70.0271247145787754 1.8369059890586519 7.9999999999999982 4
0.0760566213479917  4.5190083024367880 62.6819444927023497 1.8035322650850230 7.9999999999999982 5
0.0908272075640609  3.8809981960929356 56.2311966206295608 1.7711841690925234 7.9999999999999964 6
0.1054716496799530  3.2629086348595977 50.6328302603527689 1.7399411674811458 8.0000000000000018 7
0.1199991834310568  2.6657593616669271 45.8378739664667023 1.7098631118976630 7.9999999999999964 8
0.1344189144989937  2.0902740727403164 41.7925745970859523 1.6809916220209000 7.9999999999999991 9
0.1487396996142045  1.5369074169488020 38.4403104279667787 1.6533518119290538 7.9999999999999991 10
0.1629700539049926  1.0058739452498733 35.7232402244208771 1.6269542244494921 7.9999999999999982 11
0.1771180821411784  0.4971777592423685 33.5836752040087418 1.6017968544500083 8.0000000000000000 12
0.1911914311456906  0.0106418776287784 31.9651796163749005 1.5778671619715190 7.9999999999999982 13
0.2051972604939442  -0.4540634343718926 30.8134185107751364 1.5551439973811889 8.0000000000000000 14
0.2191422286205921  -0.8973939383447418 30.0767790698656334 1.5335993817387439 8.0000000000000018 15
0.2330324915599389  -1.3199067039507635 29.7067957386282089 1.5132001051053250 8.0000000000000000 16
0.2468737117286761  -1.7222376652534432 29.6584103152903182 1.4939091227276498 8.0000000000000018 17
0.2606710743949749  -2.1050815997019798 29.8900971051787110 1.4756867433742284 7.9999999999999973 18
0.2744293097479181  -2.4691745750684486 30.3638809022695106 1.4584916153580576 8.0000000000000000 19
0.2881527187694081  -2.8152788244544524 31.0452725172602193 1.4422815239823161 7.9999999999999982 20
0.3018452014022688  -3.1441699416868865 31.9031432236304084 1.4270140195262364 8.0000000000000000 21
0.3155102857904062  -3.4566262388962130 32.9095561280747901 1.4126468978222000 8.0000000000000036 22
0.3291511576292889  -3.7534200739714647 34.0395692751562393 1.3991385564156074 7.9999999999999964 23
0.3427706889002540  -4.0353109363092861 35.2710223806676169 1.3864482487215253 7.9999999999999982 24
0.3563714654658812  -4.3030400726260236 36.5843165126341887 1.3745362569504307 7.9999999999999982 25
0.3699558131743106  -4.5573264380613043 37.9621938233567846 1.3633640022711315 7.9999999999999982 26
0.3835258222585890  -4.7988637687893672 39.3895225743923731 1.3528941080443184 8.0000000000000018 27
0.3970833699252876  -5.0283185884530051 40.8530911660348863 1.3430904292527022 7.9999999999999964 28
0.4106301411081598  -5.2463289798369264 42.3414136509968415 1.3339180586582613 7.9999999999999991 29
0.4241676474214804  -5.4535039735836364 43.8445482412517009 1.3253433178549068 8.0000000000000000 30
0.4376972443879770  -5.6504234261134556 45.3539295690278621 1.3173337393240836 8.0000000000000000 31
0.4512201470417965  -5.8376382783095897 46.8622149008592430 1.3098580438684577 8.0000000000000000 32
0.4647374440211980  -6.0156711043699467 48.3631440935045589 1.3028861163924947 8.0000000000000036 33
0.4782501102715878  -6.1850168761786266 49.8514127923650676 1.2963889818959413 8.0000000000000018 34
0.4917590184795513  -6.3461438824853849 51.3225581808089615 1.2903387827129011 7.9999999999999982 35
0.5052649493546175  -6.4994947541219350 52.7728564706724796 1.2847087574257698 8.0000000000000000 36
0.5187686008690976  -6.6454875565466844 54.1992312621138268 1.2794732214690880 7.9999999999999982 37
0.5322705965585712  -6.7845169193691071 55.5991718803131363 1.2746075491747941 8.0000000000000000 38
0.5457714929772245  -6.9169551793629660 56.9706608056092279 1.2700881568624380 8.0000000000000000 39
0.5592717863938185  -7.0431535190422840 58.3121093434251634 1.2658924865157037 7.9999999999999982 40
0.5727719188059169  -7.1634430873445183 59.6223007237400395 1.2619989895847672 8.0000000000000000 41
0.5862722833423432  -7.2781360925256413 60.9003398716055671 1.2583871104924362 7.9999999999999973 42
0.5997732291167671  -7.3875268601844377 62.1456091463369802 1.2550372694847716 8.0000000000000018 43
0.6132750655888832  -7.4918928515380525 63.3577294046494188 1.2519308445419615 7.9999999999999982 44
0.6267780664838265  -7.5914956387874515 64.5365258001472455 1.2490501521439743 8.0000000000000000 45
0.6402824733152506  -7.6865818357372575 65.6819977867886848 1.2463784267617393 7.9999999999999982 46
0.6537884985528133  -7.7773839828518181 66.7942928463584167 1.2438997990145588 8.0000000000000018 47
0.6672963284706360  -7.8641213867017825 67.8736835090155921 1.2415992724955820 7.9999999999999982 48
0.6808061257095571  -7.9470009143372362 68.9205472813786457 1.2394626993185938 8.0000000000000000 49
0.6943180315826578  -8.0262177435544650 69.9353491382525476 1.2374767544806557 8.0000000000000036 50
0.7078321681505323  -8.1019560703378346 70.9186262720461400 1.2356289091668100 8.0000000000000018 51
0.7213486400900814  -8.1743897749811545 71.8709748282889933 1.2339074031457764 8.0000000000000018 52
0.7348675363781875  -8.2436830485444883 72.7930383866261508 1.2323012164203155 8.0000000000000000 53
0.7483889318094454  -8.3099909813991211 73.6854979744655196 1.2308000403038455 8.0000000000000036 54
0.7619128883651615  -8.3734601156666386 74.5490634253129798 1.2293942480970277 8.0000000000000000 55
0.7754394564490503  -8.4342289633786045 75.3844659159994848 1.2280748655354319 8.0000000000000018 56
0.7889686760034751  -8.4924284921773996 76.1924515367191475 1.2268335411730757 8.0000000000000000 57
0.8025005775186129  -8.5481825803540232 76.9737757652950449 1.2256625168574973 7.9999999999999982 58
0.8160351829456443  -8.6016084429780477 77.7291987325820628 1.2245545984407640 7.9999999999999991 59
0.8295725065238773  -8.6528170308234422 78.4594811796176259 1.2235031268582404 8.0000000000000018 60
0.8431125555306691  -8.7019134037343093 79.1653810192240570 1.2225019496934686 8.0000000000000000 61
0.8566553309620526  -8.7489970800086567 79.8476504254276875 1.2215453933337164 8.0000000000000036 62
0.8702008281511265  -8.7941623633088071 80.5070333834515992 1.2206282358069400 7.9999999999999964 63
0.8837490373304969  -8.8374986485350586 81.1442636412983660 1.2197456803774189 7.9999999999999982 64
0.8972999441443790  -8.8790907080258350 81.7600630111999891 1.2188933299643192 7.9999999999999982 65
0.9108535301153516  -8.9190189593746787 82.3551399755936302 1.2180671624352175 8.0000000000000000 66
0.9244097730702115  -8.9573597160815783 82.9301885578781537 1.2172635068150910 8.0000000000000036 67
0.9379686475288896  -8.9941854221851010 83.4858874231219090 1.2164790204407383 8.0000000000000000 68
0.9515301250599559  -9.0295648719525481 84.0228991782024224 1.2157106670809186 8.0000000000000000 69
0.9650941746058598  -9.0635634156380505 84.5418698446351584 1.2149556960337695 8.0000000000000000 70
0.9786607627807047  -9.0962431522545231 85.0434284806659804 1.2142116222052783 8.0000000000000000 71
0.9922298541430626  -9.1276631102430379 85.5281869321027983 1.2134762071656859 7.9999999999999982 72
1.0058014114460616  -9.1578794168649633 85.9967396939100297 1.2127474411746635 8.0000000000000018 73
1.0193753958667415  -9.1869454570859617 86.4496638668216519 1.2120235261609018 8.0000000000000000 74
1.0329517672164736  -9.2149120226683365 86.8875191951849359 1.2113028596373130 8.0000000000000000 75
1.0465304841340459  -9.2418274521384411 87.3108481739647573 1.2105840195292856 8.0000000000000000 76
1.0601115042628584  -9.2677377622487924 87.7201762143410235 1.2098657498903764 7.9999999999999964 77
1.0736947844135289  -9.2926867715110735 88.1160118586568188 1.2091469474773227 8.0000000000000000 78
1.0872802807130852  -9.3167162163345800 88.4988470366296838 1.2084266491542945 7.9999999999999982 79
1.1008679487417978  -9.3398658602668370 88.8691573557595262 1.2077040200948606 8.0000000000000000 80
1.1144577436586283  -9.3621735967968291 89.2274024197589455 1.2069783427490683 8.0000000000000000 81
1.1280496203161559  -9.3836755461484778 89.5740261696180085 1.2062490065423983 7.9999999999999991 82
1.1416435333657908  -9.4044061464607864 89.9094572426050718 1.2055154982730125 8.0000000000000000 83
1.1552394373539934  -9.4243982397224180 90.2341093451127279 1.2047773931736590 8.0000000000000000 84
1.1688372868101760  -9.4436831528020111 90.5483816357924098 1.2040343466048291 8.0000000000000036 85
1.1824370363268919  -9.4622907738907802 90.8526591158896224 1.2032860863461381 8.0000000000000018 86
1.1960386406328811  -9.4802496246511847 91.1473130241065235 1.2025324054535376 8.0000000000000036 87
1.2096420546594879  -9.4975869283444059 91.4327012336808735 1.2017731556506670 8.0000000000000000 88
1.2232472336009350  -9.5143286741899011 91.7091686496931686 1.2010082412235472 8.0000000000000000 89
1.2368541329688911  -9.5304996781922817 91.9770476048936274 1.2002376133887558 8.0000000000000000 90
1.2504627086417539  -9.5461236406541339 92.2366582525887395 1.1994612651062668 7.9999999999999982 91
1.2640729169090212  -9.5612232005782207 92.4883089553494528 1.1986792263092316 8.0000000000000018 92
1.2776847145111097  -9.5758199871480834 92.7322966684893970 1.1978915595240887 8.0000000000000036 93
1.2912980586749545  -9.5899346684632079 92.9689073174372140 1.1970983558555739 8.0000000000000000 94
1.3049129071456922  -9.6035869976927799 93.1984161682703842 1.1962997313123411 8.0000000000000000 95
1.3185292182147190  -9.6167958568008665 93.4210881908124264 1.1954958234500905 8.0000000000000036 96
1.3321469507443913  -9.6295792979855719 93.6371784138075895 1.1946867883102541 7.9999999999999982 97
1.3457660641896145  -9.6419545829654325 93.8469322717901946 1.1938727976334516 8.0000000000000000 98
1.3593865186165643  -9.6539382202368991 94.0505859433505123 1.1930540363280204 7.9999999999999991 99
1.3730082747187449  -9.6655460004195390 94.2483666805805740 1.1922307001750709 8.0000000000000000 100
1.3866312938305991  -9.6767930297971283 94.4404931295454304 1.1914029937525439 7.9999999999999956 101
1.4002555379388568  -9.6876937621565720 94.6271756416877565 1.1905711285618035 7.9999999999999982 102
1.4138809696917993  -9.6982620290195367 94.8086165761232280 1.1897353213412902 8.0000000000000000 103
1.4275075524066054  -9.7085110683562483 94.9850105928266402 1.1888957925527226 7.9999999999999964 104
1.4411352500749386  -9.7184535518648119 95.1565449367494978 1.1880527650262493 8.0000000000000000 105
1.4547640273669140  -9.7281016108946705 95.3233997129377713 1.1872064627518224 8.0000000000000000 106
1.4683938496335867  -9.7374668610878334 95.4857481527528904 1.1863571098049359 7.9999999999999982 107
1.4820246829080810  -9.7465604258069192 95.6437568713150057 1.1855049293956197 8.0000000000000000 108
1.4956564939054879  -9.7553929584152552 95.7975861163133828 1.1846501430303751 7.9999999999999964 109
1.5092892500216257  -9.7639746634700781 95.9473900083416993 1.1837929697774408 8.0000000000000000 110
1.5229229193307829  -9.7723153168863774 96.0933167729308195 1.1829336256264420 7.9999999999999964 111
1.5365574705825249  -9.7804242851256795 96.2355089644641879 1.1820723229341490 7.9999999999999982 112
1.5501928731976593  -9.7883105434607298 96.3741036821645309 1.1812092699486214 8.0000000000000000 113
1.5638290972634408  -9.7959826933641985 96.5092327783553969 1.1803446704046376 8.0000000000000000 114
1.5774661135280912  -9.8034489790668964 96.6410230591980053 1.1794787231838038 8.0000000000000000 115
1.5911038933947046  -9.8107173033281274 96.7695964781122484 1.1786116220332348 8.0000000000000036 116
1.6047424089146063  -9.8177952424587058 96.8950703220913283 1.1777435553371967 8.0000000000000036 117
1.6183816327802230  -9.8246900606347438 97.0175573911206328 1.1768747059365037 7.9999999999999973 118
1.6320215383175209  -9.8314087235382210 97.1371661709113567 1.1760052509908989 7.9999999999999964 119
1.6456620994780666  -9.8379579113584246 97.2540009991582792 1.1751353618799993 8.0000000000000036 120
1.6593032908307537  -9.8443440311863064 97.3681622255286783 1.1742652041387709 7.9999999999999964 121
1.6729450875532441  -9.8505732288324630 97.4797463655914100 1.1733949374238288 8.0000000000000036 122
1.6865874654231647  -9.8566514000971637 97.5888462488833142 1.1725247155071159 8.0000000000000000 123
1.7002304008090896  -9.8625842015200309 97.6955511613181642 1.1716546862938901 7.9999999999999973 124
1.7138738706613539  -9.8683770606348098 97.7999469821289864 1.1707849918621194 7.9999999999999982 125
1.7275178525027213  -9.8740351857539181 97.9021163155395016 1.1699157685207007 8.0000000000000036 126
1.7411623244189418  -9.8795635753056636 98.0021386173480664 1.1690471468841115 7.9999999999999991 127
1.7548072650492181  -9.8849670267462812 98.1000903166109879 1.1681792519613317 7.9999999999999973 128
1.7684526535766127  -9.8902501450672577 98.1960449326002447 1.1673122032570500 7.9999999999999964 129
1.7820984697184143  -9.8954173509177998 98.2900731872106377 1.1664461148833662 8.0000000000000000 130
1.7957446937164836  -9.9004728883610333 98.3822431129848241 1.1655810956803672 8.0000000000000000 131
1.8093913063275979  -9.9054208322816244 98.4726201569200157 1.1647172493440956 7.9999999999999982 132
1.8230382888138121  -9.9102650954615985 98.5612672802146363 1.1638546745605813 8.0000000000000036 133
1.8366856229328474  -9.9150094353401332 98.6482450541090401 1.1629934651447289 8.0000000000000018 134
1.8503332909285277  -9.9196574604727275 98.7336117519704857 1.1621337101829985 8.0000000000000000 135
1.8639812755212706  -9.9242126367036612 98.8174234377641341 1.1612754941788754 8.0000000000000036 136
1.8776295598986457  -9.9286782930657083 98.8997340510515244 1.1604188972002889 8.0000000000000000 137
1.8912781277060116  -9.9330576274197941 98.9805954886504935 1.1595639950281851 7.9999999999999947 138
1.9049269630372396  -9.9373537118469137 99.0600576830862281 1.1587108593055666 8.0000000000000000 139
1.9185760504255320  -9.9415694978039557 99.1381686779583902 1.1578595576863746 8.0000000000000000 140
1.9322253748343394  -9.9457078210545067 99.2149747003473408 1.1570101539836879 7.9999999999999947 141
1.9458749216483884  -9.9497714063852101 99.2905202303737440 1.1561627083167414 8.0000000000000036 142
1.9595246766648233  -9.9537628721173252 99.3648480680242017 1.1553172772563380 8.0000000000000000 143
1.9731746260844620  -9.9576847344235730 99.4379993973531668 1.1544739139683255 8.0000000000000000 144
1.9868247565031751  -9.9615394114586859 99.5100138481620604 1.1536326683547649 8.0000000000000000 145
2.0004750549033923  -9.9653292273126404 99.5809295552587201 1.1527935871925641 8.0000000000000000 146
2.0141255086457344  -9.9690564157945154 99.6507832153918685 1.1519567142693183 7.9999999999999956 147
2.0277761054607750  -9.9727231240548715 99.7196101419533960 1.1511220905161725 7.9999999999999991 148
2.0414268334409393  -9.9763314160538936 99.7874443175386432 1.1502897541375319 8.0000000000000000 149
2.0550776810325311  -9.9798832758824201 99.8543184444490635 1.1494597407375000 7.9999999999999991 150
2.0687286370278977  -9.9833806109425272 99.9202639932211554 1.1486320834429298 8.0000000000000000 151
2.0823796905577323  -9.9868252549939402 99.9853112492584728 1.1478068130230059 8.0000000000000000 152
2.0960308310835063  -9.9902189710724052 100.0494893576452995 1.1469839580052987 8.0000000000000000 153
2.1096820483900478  -9.9935634542857592 100.1128263662132127 1.1461635447882497 7.9999999999999982 154
2.1233333325782451  -9.9968603344931815 100.1753492669309651 1.1453455977500657 8.0000000000000018 155
2.1369846740578962  -10.0001111788727606 100.2370840356854700 1.1445301393540050 8.0000000000000036 156
2.1506360635406865  -10.0033174943825784 100.2980556705176838 1.1437171902500742 8.0000000000000018 157
2.1642874920333055  -10.0064807301197369 100.3582882283765372 1.1429067693731443 8.0000000000000018 158
2.1779389508306948  -10.0096022795820740 100.4178048604487401 1.1420988940375116 7.9999999999999947 159
2.1915904315094288  -10.0126834828368185 100.4766278461233355 1.1412935800279549 8.0000000000000018 160
2.2052419259212295  -10.0157256286001406 100.5347786256438525 1.1404908416873067 8.0000000000000000 161
2.2188934261866065  -10.0187299562317804 100.5922778315031678 1.1396906920006336 7.9999999999999982 162
2.2325449246886300  -10.0216976576481507 100.6491453186284275 1.1388931426760394 8.0000000000000000 163
2.2461964140668296  -10.0246298791576791 100.7054001934072573 1.1380982042221872 8.0000000000000000 164
2.2598478872112158  -10.0275277232217856 100.7610608415995159 1.1373058860225900 8.0000000000000018 165
2.2734993372564296  -10.0303922501444926 100.8161449551800786 1.1365161964067543 7.9999999999999982 166
2.2871507575760108  -10.0332244796940877 100.8706695581558677 1.1357291427182452 7.9999999999999991 167
2.3008021417767868  -10.0360253926594130 100.9246510313965217 1.1349447313797436 8.0000000000000000 168
2.3144534836933808  -10.0387959323438789 100.9781051365194031 1.1341629679551921 8.0000000000000000 169
2.3281047773828347  -10.0415370059997038 101.0310470388658928 1.1333838572090933 8.0000000000000000 170
2.3417560171193497  -10.0442494862049756 101.0834913296056072 1.1326074031630518 8.0000000000000018 171
2.3554071973891331  -10.0469342121859704 101.1354520470019054 1.1318336091496328 7.9999999999999964 172
2.3690583128853597  -10.0495919910871248 101.1869426968746808 1.1310624778636356 8.0000000000000018 173
2.3827093585032451  -10.0522235991906310 101.2379762722879519 1.1302940114108373 8.0000000000000018 174
2.3963603293352156  -10.0548297830881790 101.2885652724977774 1.1295282113543217 8.0000000000000000 175
2.4100112206661910  -10.0574112608064343 101.3387217211858626 1.1287650787584460 8.0000000000000036 176
2.4236620279689673  -10.0599687228885450 101.3884571840090558 1.1280046142305391 8.0000000000000000 177
2.4373127468996971  -10.0625028334332622 101.4377827854910379 1.1272468179604123 8.0000000000000000 178
2.4509633732934710  -10.0650142310935813 101.4867092252823539 1.1264916897577519 8.0000000000000000 179
2.4646139031599965  -10.0675035300365519 101.5352467938125045 1.1257392290874781 8.0000000000000000 180
2.4782643326793674  -10.0699713208658661 101.5834053873605995 1.1249894351031446 8.0000000000000036 181
2.4919146581979281  -10.0724181715087422 101.6311945225632485 1.1242423066784475 8.0000000000000036 182
2.5055648762242280  -10.0748446280685791 101.6786233503859478 1.1234978424369237 7.9999999999999982 183
2.5192149834250652  -10.0772512156449157 101.7257006695760140 1.1227560407799082 8.0000000000000036 184
2.5328649766216151  -10.0796384391217142 101.7724349396176251 1.1220168999128073 7.9999999999999982 185
2.5465148527856436  -10.0820067839257170 101.8188342932102870 1.1212804178697804 8.0000000000000000 186
2.5601646090358070  -10.0843567167556074 101.8649065482861289 1.1205465925368689 8.0000000000000036 187
2.5738142426340271  -10.0866886862836225 101.9106592195863499 1.1198154216736524 8.0000000000000000 188
2.5874637509819505  -10.0890031238303539 101.9560995298132156 1.1190869029334964 8.0000000000000000 189
2.6011131316174834  -10.0913004440140490 102.0012344203731800 1.1183610338824341 8.0000000000000036 190
2.6147623822114010  -10.0935810453753518 102.0460705617274755 1.1176378120167636 7.9999999999999947 191
2.6284115005640327  -10.0958453109785893 102.0906143633658445 1.1169172347794070 7.9999999999999982 192
2.6420604846020201  -10.0980936089902098 102.1348719834162893 1.1161992995750740 8.0000000000000053 193
2.6557093323751459  -10.1003262932357281 102.1788493379062999 1.1154840037843068 8.0000000000000000 194
2.6693580420532252  -10.1025437037358081 102.2225521096884790 1.1147713447764509 7.9999999999999973 195
