 # inv_tmp, energy, phys_var, phys_doublon, phys_num, step_i
0.0155443448304767  7.3358445266384154 98.7619081939968737 1.9675058437831168 8.0000000000000000 1
0.0309214667800408  6.6400304858139600 88.4935548759579405 1.9340595893119401 7.9999999999999982 2
0.0461386098828436  5.9570703314346529 79.1616197714068477 1.9011952745059411 8.0000000000000000 3
0.0612039577359209  5.2894986543531335 70.7665997227387749 1.8690266662902506 8.0000000000000036 4
0.0761263228666730  4.6393927431131772 63.2941022195104352 1.8376495281121430 8.0000000000000053 5
0.0909148546147464  4.0083683700507944 56.7169880457107425 1.8071414702811743 8.0000000000000000 6
0.1055787810427567  3.3975976827165986 50.9977699295636029 1.7775625761996676 8.0000000000000000 7
0.1201271945771661  2.8078443326828313 46.0910681235461581 1.7489566336620850 8.0000000000000018 8
0.1345688855127219  2.2395104825453291 41.9459597548437131 1.7213527857267725 8.0000000000000036 9
0.1489122228368335  1.6926905059066035 38.5081037061871569 1.6947674227057430 8.0000000000000036 10
0.1631650783756308  1.1672268415631484 35.7215686237926420 1.6692061591678165 8.0000000000000000 11
0.1773347880882503  0.6627643750506527 33.5303325013921523 1.6446657707549590 8.0000000000000000 12
0.1914281433035545  0.1788007170353411 31.8794547750388944 1.6211359992188177 7.9999999999999964 13
0.2054514045627527  -0.2852693053638056 30.7159448416068628 1.5986011660756776 7.9999999999999982 14
0.2194103312309420  -0.7301158140237027 29.9893648854964923 1.5770415629834067 8.0000000000000036 15
0.2333102209198651  -1.1564429275090238 29.6522113360709163 1.5564346091223675 7.9999999999999982 16
0.2471559538201387  -1.5649644464668784 29.6601200517513490 1.5367557823269458 7.9999999999999982 17
0.2609520381263283  -1.9563856196907730 29.9719372894777223 1.5179793419434935 8.0000000000000000 18
0.2747026537565757  -2.3313902517782963 30.5496932690068199 1.5000788682004385 7.9999999999999947 19
0.2884116924658412  -2.6906323318965524 31.3585089216564370 1.4830276461869740 7.9999999999999991 20
0.3020827932044328  -3.0347313545155754 32.3664600991346347 1.4667989232281275 8.0000000000000018 21
0.3157193721777769  -3.3642705434757203 33.5444176670973420 1.4513660672824538 8.0000000000000036 22
0.3293246475278223  -3.6797972618001125 34.8658768250697264 1.4367026516024433 8.0000000000000018 23
0.3429016588958730  -3.9818249773351946 36.3067848017004877 1.4227824877811801 8.0000000000000000 24
0.3564532823584396  -4.2708362486654980 37.8453727724872522 1.4095796258381028 7.9999999999999991 25
0.3699822413697115  -4.5472862899872384 39.4619953629168663 1.3970683364517251 8.0000000000000000 26
0.3834911144135457  -4.8116067632481307 41.1389793218348956 1.3852230870298521 8.0000000000000018 27
0.3969823400801373  -5.0642095280497603 42.8604817520909336 1.3740185201588428 8.0000000000000000 28
0.4104582202519421  -5.3054901529300604 44.6123575438076969 1.3634294401844576 7.9999999999999956 29
0.4239209220224047  -5.5358310548987948 46.3820352562736105 1.3534308112998996 8.0000000000000000 30
0.4373724788903959  -5.7556041872881352 48.1584005390284489 1.3439977685721445 8.0000000000000018 31
0.4508147916820578  -5.9651732393392880 49.9316861898252995 1.3351056418204450 8.0000000000000000 32
0.4642496295574233  -6.1648953450299473 51.6933680523457539 1.3267299911459334 8.0000000000000036 33
0.4776786313675112  -6.3551223242450430 53.4360661110237274 1.3188466521593170 8.0000000000000000 34
0.4911033075429017  -6.5362014974516551 55.1534503090312285 1.3114317885157065 7.9999999999999991 35
0.5045250426199408  -6.7084761266006616 56.8401507749090342 1.3044619491877965 8.0000000000000000 36
0.5179450984473937  -6.8722855411209034 58.4916722793026196 1.2979141279359114 7.9999999999999991 37
0.5313646180651922  -7.0279650096606403 60.1043128487926026 1.2917658226129836 8.0000000000000036 38
0.5447846302077216  -7.1758454166727805 61.6750865371357406 1.2859950922260719 8.0000000000000000 39
0.5582060543560672  -7.3162527989525952 63.2016503971855386 1.2805806100215613 7.9999999999999973 40
0.5716297062455881  -7.4495077916236108 64.6822357133782759 1.2755017112337039 7.9999999999999973 41
0.5850563037256402  -7.5759250265107081 66.1155835501088518 1.2707384345082962 7.9999999999999964 42
0.5984864728656876  -7.6958125188906887 67.5008846510696543 1.2662715563644249 8.0000000000000000 43
0.6119207542048888  -7.8094710716986917 68.8377236939230102 1.2620826183734757 8.0000000000000000 44
0.6253596090490947  -7.9171937197089370 70.1260278681814384 1.2581539470075782 8.0000000000000018 45
0.6388034257287621  -8.0192652302141703 71.3660197057418060 1.2544686663353903 8.0000000000000018 46
0.6522525257425019  -8.1159616714302985 72.5581740561846829 1.2510107039214764 8.0000000000000000 47
0.6657071697229334  -8.2075500553119927 73.7031790648985066 1.2477647904186484 8.0000000000000000 48
0.6791675631735242  -8.2942880576901690 74.8019009827682595 1.2447164534347201 8.0000000000000018 49
0.6926338619366252  -8.3764238156029176 75.8553526123905897 1.2418520063111793 7.9999999999999973 50
0.7061061773636055  -8.4541957993318473 76.8646651778371535 1.2391585324769769 8.0000000000000053 51
0.7195845811676208  -8.5278327549018496 77.8310633927908953 1.2366238660415063 8.0000000000000018 52
0.7330691099479770  -8.5975537115762322 78.7558434950539379 1.2342365692723771 8.0000000000000000 53
0.7465597693822528  -8.6635680480954989 79.6403540134053287 1.2319859075704980 7.9999999999999982 54
0.7600565380883317  -8.7260756109910531 80.4859790349237016 1.2298618225117492 8.0000000000000000 55
0.7735593711633405  -8.7852668781782555 81.2941237464677613 1.2278549034746695 8.0000000000000000 56
0.7870682034102788  -8.8413231611323067 82.0662020323466805 1.2259563583201865 8.0000000000000000 57
0.8005829522659931  -8.8944168392172962 82.8036259206440377 1.2241579835349048 8.0000000000000000 58
0.8141035204461829  -8.9447116201243624 83.5077966825972169 1.2224521341956791 7.9999999999999991 59
0.8276297983244748  -8.9923628208389292 84.1800974023518620 1.2208316940615374 8.0000000000000000 60
0.8411616660633596  -9.0375176640663391 84.8218868478579537 1.2192900460504650 7.9999999999999982 61
0.8546989955150738  -9.0803155855740130 85.4344944872882621 1.2178210433137455 8.0000000000000000 62
0.8682416519104028  -9.1208885484365307 86.0192165088348020 1.2164189810798105 8.0000000000000000 63
0.8817894953529960  -9.1593613606831710 86.5773127148438135 1.2150785694031052 7.9999999999999964 64
0.8953423821361506  -9.1958519933344292 87.1100041738148718 1.2137949069211813 7.9999999999999991 65
0.9089001658982520  -9.2304718962686589 87.6184715256836313 1.2125634556950826 8.0000000000000000 66
0.9224626986321511  -9.2633263097773764 88.1038538469529726 1.2113800171837734 8.0000000000000000 67
0.9360298315628068  -9.2945145700460507 88.5672479925862319 1.2102407093826182 8.0000000000000000 68
0.9496014159065181  -9.3241304071361686 89.0097083411070145 1.2091419451384722 8.0000000000000036 69
0.9631773035240703  -9.3522622343450372 89.4322468780703304 1.2080804116394475 7.9999999999999982 70
0.9767573474791291  -9.3789934280828948 89.8358335609929242 1.2070530510655362 7.9999999999999964 71
0.9903414025122570  -9.4044025976363130 90.2213969159925568 1.2060570423767178 8.0000000000000000 72
1.0039293254399997  -9.4285638443836230 90.5898248228260599 1.2050897842076564 8.0000000000000018 73
1.0175209754876324  -9.4515470101961423 90.9419654507783264 1.2041488788322976 8.0000000000000000 74
1.0311162145633184  -9.4734179149006525 91.2786283129884737 1.2032321171574014 7.9999999999999964 75
1.0447149074806905  -9.4942385827967151 91.6005854113559508 1.2023374647010219 7.9999999999999991 76
1.0583169221361419  -9.5140674583198699 91.9085724481980009 1.2014630485099886 8.0000000000000000 77
1.0719221296464729  -9.5329596110212282 92.2032900843763770 1.2006071449694071 8.0000000000000000 78
1.0855304044519460  -9.5509669300969993 92.4854052267283180 1.1997681684568218 8.0000000000000000 79
1.0991416243892487  -9.5681383087515499 92.7555523303574603 1.1989446607939707 8.0000000000000036 80
1.1127556707383839  -9.5845198187152256 93.0143347037214454 1.1981352814497783 8.0000000000000000 81
1.1263724282470478  -9.6001548752663446 93.2623258065136866 1.1973387984493304 8.0000000000000000 82
1.1399917851356638  -9.6150843931259526 93.5000705321290297 1.1965540799449583 8.0000000000000000 83
1.1536136330858682  -9.6293469336063939 93.7280864680465129 1.1957800864071633 8.0000000000000018 84
1.1672378672149237  -9.6429788434012931 93.9468651287924104 1.1950158633948575 7.9999999999999964 85
1.1808643860382446  -9.6560143854058662 94.1568731572879898 1.1942605348662381 7.9999999999999947 86
1.1944930914219476  -9.6684858619542382 94.3585534913570996 1.1935132969935158 7.9999999999999982 87
1.2081238885271270  -9.6804237308549208 94.5523264930010043 1.1927734124466727 8.0000000000000036 88
1.2217566857473212  -9.6918567145972911 94.7385910387472876 1.1920402051133170 7.9999999999999982 89
1.2353913946404760  -9.7028119030921882 94.9177255699713385 1.1913130552236444 7.9999999999999964 90
1.2490279298565288  -9.7133148502977775 95.0900891025849404 1.1905913948513354 7.9999999999999964 91
1.2626662090616012  -9.7233896650696430 95.2560221958982538 1.1898747037630664 7.9999999999999982 92
1.2763061528596567  -9.7330590965603854 95.4158478808040940 1.1891625055910322 7.9999999999999964 93
1.2899476847123605  -9.7423446144804267 95.5698725477114692 1.1884543643045560 8.0000000000000000 94
1.3035907308577865  -9.7512664845173695 95.7183867948816243 1.1877498809584552 8.0000000000000000 95
1.3172352202285200  -9.7598438391974973 95.8616662380023712 1.1870486906973698 8.0000000000000000 96
1.3308810843696299  -9.7680947444585922 95.9999722819772785 1.1863504599966639 8.0000000000000036 97
1.3445282573569122  -9.7760362621897343 96.1335528560166637 1.1856548841219086 7.9999999999999982 98
1.3581766757157476  -9.7836845089801479 96.2626431131991467 1.1849616847902142 8.0000000000000000 99
1.3718262783408637  -9.7910547113058772 96.3874660957284703 1.1842706080178740 8.0000000000000000 100
1.3854770064172395  -9.7981612573707650 96.5082333671520587 1.1835814221399459 8.0000000000000000 101
1.3991288033423568  -9.8050177458055465 96.6251456128253920 1.1828939159884151 8.0000000000000000 102
1.4127816146499608  -9.8116370314174990 96.7383932099173336 1.1822078972165975 8.0000000000000000 103
1.4264353879354639  -9.8180312681716515 96.8481567682460422 1.1815231907583474 7.9999999999999982 104
1.4400900727830974  -9.8242119495741065 96.9546076432234543 1.1808396374115051 7.9999999999999973 105
1.4537456206948953  -9.8301899466175460 97.0579084221658661 1.1801570925358078 8.0000000000000000 106
1.4674019850215663  -9.8359755434397016 97.1582133852014209 1.1794754248562376 8.0000000000000036 107
1.4810591208953041  -9.8415784708360938 97.2556689419745624 1.1787945153634665 8.0000000000000000 108
1.4947169851645579  -9.8470079377600293 97.3504140453146363 1.1781142563037075 8.0000000000000036 109
1.5083755363307809  -9.8522726609342719 97.4425805829939407 1.1774345502508452 7.9999999999999964 110
1.5220347344871568  -9.8573808926916175 97.5322937486688772 1.1767553092543297 8.0000000000000018 111
1.5356945412593033  -9.8623404471536755 97.6196723930478214 1.1760764540567390 8.0000000000000000 112
1.5493549197479277  -9.8671587248511443 97.7048293562987311 1.1753979133754844 8.0000000000000036 113
1.5630158344734244  -9.8718427358815362 97.7878717826579873 1.1747196232434791 8.0000000000000000 114
1.5766772513223752  -9.8763991216951048 97.8689014181690879 1.1740415264040689 8.0000000000000000 115
1.5903391374959306  -9.8808341755933640 97.9480148924326670 1.1733635717558286 8.0000000000000000 116
1.6040014614600231  -9.8851538620197239 98.0253039852125028 1.1726857138432294 8.0000000000000000 117
1.6176641928973867  -9.8893638347165957 98.1008558787027027 1.1720079123894613 8.0000000000000000 118
1.6313273026613235  -9.8934694538185362 98.1747533962200123 1.1713301318680056 7.9999999999999982 119
1.6449907627311910  -9.8974758019468183 98.2470752280514716 1.1706523411098120 8.0000000000000000 120
1.6586545461695483  -9.9013876993664756 98.3178961451489641 1.1699745129431940 7.9999999999999947 121
1.6723186270809220  -9.9052097182632615 98.3872872013289594 1.1692966238637861 7.9999999999999991 122
1.6859829805721458  -9.9089461961940017 98.4553159246001428 1.1686186537320962 7.9999999999999991 123
1.6996475827142181  -9.9126012487608683 98.5220464982128874 1.1679405854964211 8.0000000000000000 124
1.7133124105056368  -9.9161787815564928 98.5875399319896104 1.1672624049390377 8.0000000000000036 125
1.7269774418371582  -9.9196825014242602 98.6518542244682379 1.1665841004437605 8.0000000000000036 126
1.7406426554579355  -9.9231159270749938 98.7150445163621271 1.1659056627831201 7.9999999999999991 127
1.7543080309429875  -9.9264823990990472 98.7771632358127647 1.1652270849235395 8.0000000000000036 128
1.7679735486619523  -9.9297850894098385 98.8382602358845759 1.1645483618470174 7.9999999999999947 129
1.7816391897490789  -9.9330270101533138 98.8983829247309103 1.1638694903879752 8.0000000000000018 130
1.7953049360744135  -9.9362110221148274 98.9575763888300060 1.1631904690839776 8.0000000000000000 131
1.8089707702161359  -9.9393398426538706 99.0158835096765984 1.1625112980392078 8.0000000000000000 132
1.8226366754340018  -9.9424160531943357 99.0733450742855410 1.1618319787996052 8.0000000000000018 133
1.8363026356438503  -9.9454421062969161 99.1299998798488815 1.1611525142387060 7.9999999999999973 134
1.8499686353931386  -9.9484203323382623 99.1858848328686378 1.1604729084532892 8.0000000000000000 135
1.8636346598374571  -9.9513529458200463 99.2410350430670007 1.1597931666679906 8.0000000000000018 136
1.8773006947179964  -9.9542420513297749 99.2954839123623003 1.1591132951481438 8.0000000000000000 137
1.8909667263399186  -9.9570896491736995 99.3492632191806706 1.1584333011201415 8.0000000000000000 138
1.9046327415516053  -9.9598976407009818 99.4024031983586980 1.1577531926986746 8.0000000000000000 139
1.9182987277247439  -9.9626678333371093 99.4549326168790913 1.1570729788202720 7.9999999999999982 140
1.9319646727352173  -9.9654019453435012 99.5068788456673303 1.1563926691825930 8.0000000000000036 141
1.9456305649447663  -9.9681016103189890 99.5582679276626266 1.1557122741889769 8.0000000000000000 142
1.9592963931833947  -9.9707683814583348 99.6091246423697783 1.1550318048978017 8.0000000000000036 143
1.9729621467324814  -9.9734037355814458 99.6594725670790922 1.1543512729762222 7.9999999999999982 144
1.9866278153085788  -9.9760090769467382 99.7093341349396098 1.1536706906579188 8.0000000000000018 145
2.0002933890478607  -9.9785857408607335 99.7587306900530280 1.1529900707044856 7.9999999999999982 146
2.0139588584911956  -9.9811349970957011 99.8076825397523919 1.1523094263701605 7.9999999999999982 147
2.0276242145698267  -9.9836580531261010 99.8562090042151169 1.1516287713695736 8.0000000000000018 148
2.0412894485916198  -9.9861560571941403 99.9043284635565243 1.1509481198482603 8.0000000000000018 149
2.0549545522278656  -9.9886301012141452 99.9520584025376877 1.1502674863556888 8.0000000000000000 150
2.0686195175006103  -9.9910812235246826 99.9994154530169794 1.1495868858205647 8.0000000000000000 151
2.0822843367704915  -9.9935104114970681 100.0464154342652989 1.1489063335282097 7.9999999999999991 152
2.0959490027250589  -9.9959186040082546 100.0930733912598072 1.1482258450998231 7.9999999999999991 153
2.1096135083675587  -9.9983066937856577 100.1394036310639706 1.1475454364734485 7.9999999999999964 154
2.1232778470061611  -10.0006755296309855 100.1854197573954508 1.1468651238864889 8.0000000000000000 155
2.1369420122436167  -10.0030259185298043 100.2311347034783751 1.1461849238596109 8.0000000000000000 156
2.1506059979673164  -10.0053586276531910 100.2765607632707088 1.1455048531819267 7.9999999999999982 157
2.1642697983397441  -10.0076743862572606 100.3217096211526211 1.1448249288973069 7.9999999999999982 158
2.1779334077893022  -10.0099738874862592 100.3665923801566890 1.1441451682917247 7.9999999999999964 159
2.1915968210014949  -10.0122577900845329 100.4112195888171755 1.1434655888815293 8.0000000000000018 160
2.2052600329104513  -10.0145267200221433 100.4556012667097633 1.1427862084025464 8.0000000000000036 161
2.2189230386907810  -10.0167812720390579 100.4997469287515202 1.1421070447999311 7.9999999999999964 162
2.2325858337497375  -10.0190220111121047 100.5436656083248010 1.1414281162186930 7.9999999999999982 163
2.2462484137196883  -10.0212494738489077 100.5873658792857555 1.1407494409948080 8.0000000000000036 164
2.2599107744508662  -10.0234641698128186 100.6308558769166837 1.1400710376468739 8.0000000000000018 165
2.2735729120043993  -10.0256665827823923 100.6741433178761440 1.1393929248682457 8.0000000000000000 166
2.2872348226456016  -10.0278571719489946 100.7172355191975868 1.1387151215195790 8.0000000000000000 167
2.3008965028375217  -10.0300363730557329 100.7601394163874460 1.1380376466217581 8.0000000000000000 168
2.3145579492347230  -10.0322045994809201 100.8028615806657058 1.1373605193491512 7.9999999999999964 169
2.3282191586773022  -10.0343622432689408 100.8454082353973149 1.1366837590231575 8.0000000000000000 170
2.3418801281851276  -10.0365096761112316 100.8877852717500332 1.1360073851060011 7.9999999999999982 171
2.3555408549522854  -10.0386472502801034 100.9299982636233750 1.1353314171947611 8.0000000000000000 172
2.3692013363417308  -10.0407752995177937 100.9720524818815761 1.1346558750155786 8.0000000000000000 173
2.3828615698801352  -10.0428941398830176 101.0139529079278304 1.1339807784180431 8.0000000000000000 174
2.3965215532529118  -10.0450040705573791 101.0557042466522830 1.1333061473697137 7.9999999999999982 175
2.4101812842994277  -10.0471053746135812 101.0973109387851707 1.1326320019507679 8.0000000000000000 176
2.4238407610083774  -10.0491983197473935 101.1387771726843567 1.1319583623487477 8.0000000000000000 177
2.4374999815133260  -10.0512831589753588 101.1801068955869454 1.1312852488533967 7.9999999999999991 178
2.4511589440884016  -10.0533601312998613 101.2213038243498886 1.1306126818515669 8.0000000000000000 179
2.4648176471441410  -10.0554294623432749 101.2623714557051215 1.1299406818221829 7.9999999999999982 180
2.4784760892234781  -10.0574913649527335 101.3033130760551757 1.1292692693312527 8.0000000000000000 181
2.4921342689978667  -10.0595460397770431 101.3441317708280991 1.1285984650269154 8.0000000000000000 182
2.5057921852635334  -10.0615936758170861 101.3848304334173349 1.1279282896345164 7.9999999999999982 183
2.5194498369378597  -10.0636344509511240 101.4254117737239653 1.1272587639517029 8.0000000000000018 184
2.5331072230558811  -10.0656685324361046 101.4658783263210609 1.1265899088435272 8.0000000000000000 185
2.5467643427668984  -10.0676960773863939 101.5062324582610103 1.1259217452375667 7.9999999999999964 186
2.5604211953312053  -10.0697172332308291 101.5464763765384220 1.1252542941190422 7.9999999999999991 187
2.5740777801169159  -10.0717321381492475 101.5866121352295437 1.1245875765259288 8.0000000000000000 188
2.5877340965968969  -10.0737409214895912 101.6266416423213030 1.1239216135440744 7.9999999999999982 189
2.6013901443457903  -10.0757437041663724 101.6665666662457284 1.1232564263023037 8.0000000000000000 190
2.6150459230371372  -10.0777405990415172 101.7063888421325828 1.1225920359675146 7.9999999999999947 191
2.6287014324405820  -10.0797317112884883 101.7461096777959426 1.1219284637397688 8.0000000000000000 192
2.6423566724191692  -10.0817171387402524 101.7857305594638433 1.1212657308473641 7.9999999999999964 193
2.6560116429267118  -10.0836969722222722 101.8252527572666821 1.1206038585419051 8.0000000000000000 194
2.6696663440052490  -10.0856712958708137 101.8646774304926339 1.1199428680933552 8.0000000000000000 195
