 # inv_tmp, energy, phys_var, phys_doublon, phys_num, step_i
0.0155380273289515  7.2835318371805906 98.6184569900031676 1.9589540199117623 7.9999999999999982 1
0.0309067155685549  6.5782893323780716 88.3240889625334091 1.9232069574621411 7.9999999999999982 2
0.0461132487585279  5.8855499984613022 78.9993010061746901 1.8880488742919475 8.0000000000000000 3
0.0611656722707988  5.2076829535756426 70.6356014725296149 1.8535905391221001 8.0000000000000000 4
0.0760726554452530  4.5467210067792481 63.2107821757403556 1.8199300984373226 7.9999999999999982 5
0.0908432707443227  3.9043598752200119 56.6910385730225101 1.7871533978311189 8.0000000000000018 6
0.1054867965687445  3.2819684037294055 51.0332410209957175 1.7553345196353942 8.0000000000000018 7
0.1200125473130217  2.6806066679999829 46.1872058505217069 1.7245364129557632 7.9999999999999982 8
0.1344297313987019  2.1010491301642849 42.0978474024485081 1.6948115274924231 8.0000000000000036 9
0.1487473360523480  1.5438105260487376 38.7071274305837392 1.6662024003234792 8.0000000000000000 10
0.1629740364466010  1.0091727512168429 35.9557515568875274 1.6387421783527329 7.9999999999999982 11
0.1771181263330840  0.4972115679103678 33.7845907231577698 1.6124550841804290 8.0000000000000000 12
0.1911874672568967  0.0078224109529919 32.1358274665967016 1.5873568481910747 7.9999999999999982 13
0.2051894536572457  -0.4592550978375537 30.9538422749312119 1.5634551352539567 8.0000000000000000 14
0.2191309914737801  -0.9044141051569093 30.1858649764004134 1.5407499925670476 8.0000000000000000 15
0.2330184881938091  -1.3281590145093964 29.7824212010751097 1.5192343384199505 8.0000000000000000 16
0.2468578525415193  -1.7310855212981686 29.6976055984001803 1.4988945025630682 8.0000000000000036 17
0.2606545022132674  -2.1138621981093579 29.8892127859521537 1.4797108195722393 7.9999999999999964 18
0.2744133782120955  -2.4772136387228421 30.3187548127884057 1.4616582685830446 8.0000000000000000 19
0.2881389644486544  -2.8219051752991788 30.9513909088395494 1.4447071468741313 7.9999999999999982 20
0.3018353113743089  -3.1487291820385686 31.7557919272445019 1.4288237612777221 8.0000000000000036 21
0.3155060625104977  -3.4584929680582617 32.7039584809844825 1.4139711201457192 7.9999999999999982 22
0.3291544828452769  -3.7520082435664759 33.7710085237944710 1.4001096092043563 7.9999999999999973 23
0.3427834881861987  -4.0300821197273908 34.9349471410264698 1.3871976365768512 8.0000000000000018 24
0.3563956746864648  -4.2935095774856205 36.1764286561083921 1.3751922350223669 7.9999999999999991 25
0.3699933478940939  -4.5430673172112517 37.4785188430459044 1.3640496125720463 8.0000000000000036 26
0.3835785508059880  -4.7795088816447260 38.8264630621199274 1.3537256458774070 7.9999999999999982 27
0.3971530905348123  -5.0035609305962181 40.2074644869013582 1.3441763134681208 7.9999999999999964 28
0.4107185633120163  -5.2159205376318196 41.6104752394875774 1.3353580685896198 7.9999999999999982 29
0.4242763776520119  -5.4172533763157613 43.0260021662271370 1.3272281532834942 8.0000000000000000 30
0.4378277755887772  -5.6081926657675476 44.4459281348951691 1.3197448568747006 8.0000000000000018 31
0.4513738519665478  -5.7893387513798142 45.8633490830553683 1.3128677230713190 8.0000000000000036 32
0.4649155718213541  -5.9612592054903004 47.2724265643196446 1.3065577105221822 8.0000000000000000 33
0.4784537859312570  -6.1244893436166983 48.6682551948405973 1.3007773119841821 7.9999999999999991 34
0.4919892446419203  -6.2795330636697395 50.0467441700241409 1.2954906372954382 8.0000000000000000 35
0.5055226100925703  -6.4268639276401567 51.4045118777218022 1.2906634651995068 8.0000000000000000 36
0.5190544669773244  -6.5669264170551802 52.7387925589413555 1.2862632687780411 8.0000000000000000 37
0.5325853319801667  -6.7001373046267485 54.0473539434875008 1.2822592188739719 8.0000000000000000 38
0.5461156620201196  -6.8268870947091989 55.3284248019587466 1.2786221694635325 7.9999999999999982 39
0.5596458614378188  -6.9475414943073908 56.5806313959269147 1.2753246284935218 7.9999999999999982 40
0.5731762882469082  -7.0624428843726159 57.8029418659872718 1.2723407172619763 7.9999999999999982 41
0.5867072595643829  -7.1719117680052760 58.9946176657870893 1.2696461210013386 7.9999999999999991 42
0.6002390563239304  -7.2762481780067150 60.1551712238881464 1.2672180329330331 7.9999999999999982 43
0.6137719273660384  -7.3757330310725893 61.2843290905414761 1.2650350937068060 8.0000000000000000 44
0.6273060929885219  -7.4706294198975067 62.3819999004043950 1.2630773278197456 8.0000000000000000 45
0.6408417480314650  -7.5611838376716545 63.4482465530365687 1.2613260783288793 8.0000000000000000 46
0.6543790645615486  -7.6476273319998356 64.4832620794699949 1.2597639409262835 8.0000000000000000 47
0.6679181942124466  -7.7301765872618411 65.4873487245681218 1.2583746982345858 8.0000000000000036 48
0.6814592702304565  -7.8090349359519085 66.4608998309527408 1.2571432550005985 8.0000000000000000 49
0.6950024092678097  -7.8843933006660567 67.4043841609438061 1.2560555747126210 8.0000000000000036 50
0.7085477129601370  -7.9564310692207876 68.3183323383621683 1.2550986180393842 8.0000000000000000 51
0.7220952693193154  -8.0253169059476264 69.2033251324640446 1.2542602833827465 7.9999999999999982 52
0.7356451539683402  -8.0912095025666542 70.0599833420388904 1.2535293497490225 7.9999999999999982 53
0.7491974312408853  -8.1542582722435508 70.8889590692024711 1.2528954220727557 8.0000000000000000 54
0.7627521551647802  -8.2146039905141848 71.6909282000423786 1.2523488790692918 8.0000000000000000 55
0.7763093703456778  -8.2723793867491722 72.4665839334210347 1.2518808236466350 8.0000000000000000 56
0.7898691127646661  -8.3277096897510852 73.2166312202868426 1.2514830358708611 8.0000000000000000 57
0.8034314105014225  -8.3807131309494967 73.9417819941451455 1.2511479284512175 8.0000000000000000 58
0.8169962843926839  -8.4315014084985442 74.6427510892205817 1.2508685046895649 7.9999999999999964 59
0.8305637486342627  -8.4801801153998753 75.3202527566040061 1.2506383188228194 8.0000000000000000 60
0.8441338113335318  -8.5268491345807309 75.9749977005828043 1.2504514386754870 8.0000000000000036 61
0.8577064750182078  -8.5716030036588897 76.6076905676542168 1.2503024105314937 7.9999999999999964 62
0.8712817371063427  -8.6145312519287920 77.2190278296146886 1.2501862261294485 8.0000000000000036 63
0.8848595903416676  -8.6557187119097847 77.8096960098059469 1.2500982916827366 8.0000000000000018 64
0.8984400231977839  -8.6952458076120305 78.3803702082387161 1.2500343988249896 8.0000000000000000 65
0.9120230202541727  -8.7331888214979063 78.9317128870487892 1.2499906973818775 8.0000000000000000 66
0.9256085625465461  -8.7696201419501438 79.4643728826979441 1.2499636698717878 7.9999999999999991 67
0.9391966278936964  -8.8046084929015045 79.9789846156186002 1.2499501076403141 8.0000000000000000 68
0.9527871912026986  -8.8382191471353444 80.4761674717113920 1.2499470885364075 7.9999999999999964 69
0.9663802247540731  -8.8705141246319901 80.9565253333174297 1.2499519560414285 8.0000000000000018 70
0.9799756984683053  -8.9015523772119369 81.4206462400750866 1.2499622997659536 8.0000000000000018 71
0.9935735801549525  -8.9313899606132132 81.8691021624899804 1.2499759372330042 8.0000000000000036 72
1.0071738357454318  -8.9600801950361593 82.3024488731518602 1.2499908968701989 8.0000000000000000 73
1.0207764295104660  -8.9876738150942579 82.7212259023653189 1.2500054021372564 8.0000000000000000 74
1.0343813242630657  -9.0142191100230118 83.1259565665573064 1.2500178567190476 7.9999999999999982 75
1.0479884815478644  -9.0397620549207893 83.5171480592251498 1.2500268307182116 8.0000000000000018 76
1.0615978618175366  -9.0643464337242214 83.8952915954062348 1.2500310477849355 8.0000000000000036 77
1.0752094245969985  -9.0880139545565068 84.2608626017279789 1.2500293731250665 8.0000000000000036 78
1.0888231286360315  -9.1108043580288189 84.6143209450327163 1.2500208023310568 7.9999999999999982 79
1.1024389320509325  -9.1327555190222789 84.9561111934055617 1.2500044509835111 8.0000000000000036 80
1.1160567924557749  -9.1539035424305553 85.2866629041589022 1.2499795449741367 7.9999999999999982 81
1.1296766670838179  -9.1742828533005287 85.6063909339769822 1.2499454115038868 8.0000000000000036 82
1.1432985128995925  -9.1939262817693859 85.9156957669884775 1.2499014707127791 7.9999999999999982 83
1.1569222867021622  -9.2128651431622632 86.2149638570459302 1.2498472279005823 7.9999999999999964 84
1.1705479452200402  -9.2311293135825618 86.5045679809336434 1.2497822662999718 8.0000000000000000 85
1.1841754451982205  -9.2487473012993675 86.7848675996261250 1.2497062403661456 7.9999999999999964 86
1.1978047434777728  -9.2657463142103964 87.0562092250731610 1.2496188695491013 8.0000000000000000 87
1.2114357970684229  -9.2821523236360264 87.3189267902992015 1.2495199325168103 7.9999999999999982 88
1.2250685632145297  -9.2979901246794814 87.5733420208890720 1.2494092617995651 8.0000000000000000 89
1.2387029994548588  -9.3132833933689181 87.8197648061778011 1.2492867388275466 7.9999999999999982 90
1.2523390636765239  -9.3280547407807664 88.0584935686880499 1.2491522893354536 8.0000000000000000 91
1.2659767141634668  -9.3423257643278710 88.2898156305547275 1.2490058791096441 8.0000000000000000 92
1.2796159096398214  -9.3561170963825884 88.5140075758556861 1.2488475100547847 8.0000000000000000 93
1.2932566093084967  -9.3694484503917952 88.7313356079232705 1.2486772165584497 7.9999999999999982 94
1.3068987728852999  -9.3823386646299838 88.9420559008533758 1.2484950621334776 8.0000000000000000 95
1.3205423606289011  -9.3948057437256693 89.1464149445537828 1.2483011363191641 7.9999999999999982 96
1.3341873333669352  -9.4068668980873280 89.3446498827852338 1.2480955518235757 7.9999999999999991 97
1.3478336525185128  -9.4185385813460964 89.5369888437476789 1.2478784418903972 8.0000000000000000 98
1.3614812801134086  -9.4298365259249159 89.7236512628526270 1.2476499578747944 8.0000000000000000 99
1.3751301788081702  -9.4407757768363680 89.9048481974003266 1.2474102670137504 8.0000000000000036 100
1.3887803118993929  -9.4513707238049118 90.0807826329501609 1.2471595503772979 7.9999999999999964 101
1.4024316433343729  -9.4616351318034120 90.2516497812343061 1.2468980009879311 7.9999999999999991 102
1.4160841377193623  -9.4715821700877072 90.4176373695156173 1.2466258220962954 8.0000000000000018 103
1.4297377603256147  -9.4812244398085870 90.5789259213433979 1.2463432256020717 8.0000000000000000 104
1.4433924770934148  -9.4905740002752239 90.7356890286960578 1.2460504306096449 8.0000000000000000 105
1.4570482546342656  -9.4996423939399364 90.8880936155406971 1.2457476621088703 8.0000000000000036 106
1.4707050602314020  -9.5084406701701631 91.0363001928683104 1.2454351497718672 7.9999999999999991 107
1.4843628618387776  -9.5169794078697336 91.1804631052914942 1.2451131268573987 8.0000000000000036 108
1.4980216280786811  -9.5252687370077833 91.3207307693137693 1.2447818292149062 8.0000000000000000 109
1.5116813282381065  -9.5333183591109361 91.4572459034018692 1.2444414943808750 8.0000000000000000 110
1.5253419322640096  -9.5411375667706597 91.5901457500050356 1.2440923607606171 8.0000000000000000 111
1.5390034107575685  -9.5487352622154713 91.7195622896843332 1.2437346668890927 8.0000000000000000 112
1.5526657349675512  -9.5561199749945711 91.8456224475216487 1.2433686507647803 8.0000000000000036 113
1.5663288767828982  -9.5632998788172614 91.9684482919912227 1.2429945492510295 8.0000000000000000 114
1.5799928087246102  -9.5702828075900293 92.0881572264812291 1.2426125975397231 8.0000000000000000 115
1.5936575039370295  -9.5770762706910233 92.2048621736605156 1.2422230286724008 8.0000000000000036 116
1.6073229361785917  -9.5836874675195816 92.3186717528880649 1.2418260731143698 8.0000000000000018 117
1.6209890798121269  -9.5901233013565257 92.4296904508669286 1.2414219583776069 8.0000000000000000 118
1.6346559097947726  -9.5963903925691234 92.5380187857444554 1.2410109086885646 8.0000000000000000 119
1.6483234016675659  -9.6024950911928144 92.6437534648629395 1.2405931446972720 7.9999999999999982 120
1.6619915315447653  -9.6084434889202655 92.7469875363622123 1.2401688832243611 8.0000000000000018 121
1.6756602761029640  -9.6142414305266666 92.8478105348362988 1.2397383370428974 7.9999999999999982 122
1.6893296125700332  -9.6198945247588838 92.9463086212440999 1.2393017146921235 8.0000000000000000 123
1.7029995187139415  -9.6254081547144441 93.0425647172697126 1.2388592203204110 7.9999999999999973 124
1.7166699728314962  -9.6307874877353168 93.1366586343281853 1.2384110535549393 8.0000000000000036 125
1.7303409537370316  -9.6360374848399282 93.2286671974055139 1.2379574093957670 8.0000000000000000 126
1.7440124407510840  -9.6411629097159768 93.3186643639217976 1.2374984781321747 7.9999999999999947 127
1.7576844136890815  -9.6461683372952152 93.4067213377985581 1.2370344452792696 8.0000000000000000 128
1.7713568528500740  -9.6510581619303295 93.4929066789084260 1.2365654915330113 8.0000000000000000 129
1.7850297390055248  -9.6558366051935547 93.5772864080839781 1.2360917927419794 7.9999999999999982 130
1.7987030533881883  -9.6605077233147298 93.6599241078510829 1.2356135198942761 8.0000000000000018 131
1.8123767776810928  -9.6650754142766040 93.7408810190541715 1.2351308391181217 7.9999999999999964 132
1.8260508940066380  -9.6695434245838054 93.8202161335321989 1.2346439116948087 7.9999999999999991 133
1.8397253849158315  -9.6739153557209576 93.8979862829994829 1.2341528940827373 7.9999999999999982 134
1.8534002333776718  -9.6781946703151487 93.9742462242829077 1.2336579379514296 7.9999999999999982 135
1.8670754227686852  -9.6823846980168291 94.0490487210588526 1.2331591902244270 7.9999999999999956 136
1.8807509368626345  -9.6864886411125717 94.1224446222316402 1.2326567931301229 8.0000000000000000 137
1.8944267598204014  -9.6905095798825354 94.1944829370878551 1.2321508842596134 7.9999999999999991 138
1.9081028761800509  -9.6944504777149998 94.2652109073575843 1.2316415966307637 7.9999999999999964 139
1.9217792708470853  -9.6983141859892754 94.3346740763094829 1.2311290587577077 7.9999999999999982 140
1.9354559290848881  -9.7021034487381836 94.4029163549992631 1.2306133947250992 8.0000000000000000 141
1.9491328365053660  -9.7058209071006800 94.4699800857903824 1.2300947242664733 8.0000000000000036 142
1.9628099790597913  -9.7094691035743299 94.5359061032591512 1.2295731628461286 8.0000000000000000 143
1.9764873430298402  -9.7130504860773552 94.6007337925915976 1.2290488217439994 7.9999999999999964 144
1.9901649150188399  -9.7165674118291587 94.6645011455776171 1.2285218081430194 7.9999999999999982 145
2.0038426819432122  -9.7200221510578331 94.7272448143012298 1.2279922252185334 8.0000000000000000 146
2.0175206310241252  -9.7234168905430103 94.7890001626244754 1.2274601722293539 8.0000000000000000 147
2.0311987497793442  -9.7267537370015926 94.8498013155561921 1.2269257446100801 8.0000000000000000 148
2.0448770260152851  -9.7300347203238307 94.9096812065943851 1.2263890340643451 8.0000000000000000 149
2.0585554478192671  -9.7332617966668131 94.9686716231285715 1.2258501286586885 8.0000000000000000 150
2.0722340035519684  -9.7364368514119377 95.0268032499814694 1.2253091129167673 8.0000000000000018 151
2.0859126818400702  -9.7395617019927414 95.0841057111705084 1.2247660679136583 8.0000000000000036 152
2.0995914715691009  -9.7426381005992120 95.1406076099629558 1.2242210713700274 8.0000000000000000 153
2.1132703618764741  -9.7456677367641831 95.1963365672963846 1.2236741977459547 7.9999999999999964 154
2.1269493421447079  -9.7486522398374085 95.2513192586348794 1.2231255183342362 8.0000000000000000 155
2.1406284019948374  -9.7515931813523764 95.3055814493248903 1.2225751013529917 8.0000000000000000 156
2.1543075312800064  -9.7544920772909958 95.3591480285158468 1.2220230120374462 8.0000000000000036 157
2.1679867200792402  -9.7573503902506360 95.4120430417052319 1.2214693127307354 8.0000000000000036 158
2.1816659586913949  -9.7601695315182333 95.4642897219666366 1.2209140629736377 8.0000000000000018 159
2.1953452376292821  -9.7629508630555186 95.5159105199151952 1.2203573195931168 8.0000000000000000 160
2.2090245476139581  -9.7656956993995792 95.5669271324654943 1.2197991367896002 8.0000000000000000 161
2.2227038795691838  -9.7684053094825067 95.6173605304309717 1.2192395662228996 8.0000000000000000 162
2.2363832246160484  -9.7710809183739045 95.6672309850149531 1.2186786570967270 8.0000000000000000 163
2.2500625740677478  -9.7737237089496851 95.7165580932393425 1.2181164562417308 8.0000000000000036 164
2.2637419194245210  -9.7763348234904868 95.7653608023554739 1.2175530081970154 7.9999999999999982 165
2.2774212523687405  -9.7789153652129883 95.8136574332806390 1.2169883552901073 8.0000000000000000 166
2.2911005647601490  -9.7814663997369511 95.8614657030998103 1.2164225377153177 8.0000000000000000 167
2.3047798486312412  -9.7839889564910809 95.9088027466735440 1.2158555936105033 8.0000000000000018 168
2.3184590961827873  -9.7864840300603024 95.9556851373876327 1.2152875591321806 7.9999999999999991 169
2.3321382997794986  -9.7889525814771403 96.0021289070818682 1.2147184685289962 8.0000000000000036 170
2.3458174519458184  -9.7913955394595664 96.0481495651909256 1.2141483542135383 8.0000000000000000 171
2.3594965453618553  -9.7938138015979668 96.0937621171314333 1.2135772468324886 8.0000000000000000 172
2.3731755728594366  -9.7962082354930722 96.1389810819655821 1.2130051753351081 7.9999999999999991 173
2.3868545274182886  -9.7985796798474407 96.1838205093717420 1.2124321670400708 7.9999999999999991 174
2.4005334021623406  -9.8009289455121635 96.2282939959508354 1.2118582477006443 8.0000000000000000 175
2.4142121903561415  -9.8032568164910732 96.2724147008959790 1.2112834415682312 7.9999999999999982 176
2.4278908854013999  -9.8055640509040707 96.3161953610519674 1.2107077714542851 8.0000000000000018 177
2.4415694808336257  -9.8078513819114761 96.3596483053884469 1.2101312587906101 7.9999999999999982 178
2.4552479703188892  -9.8101195186011161 96.4027854689138053 1.2095539236880783 8.0000000000000000 179
2.4689263476506835  -9.8123691468396306 96.4456184060485242 1.2089757849937526 7.9999999999999964 180
2.4826046067468885  -9.8146009300897745 96.4881583034852497 1.2083968603464801 8.0000000000000018 181
2.4962827416468354  -9.8168155101948553 96.5304159925512835 1.2078171662309289 8.0000000000000000 182
2.5099607465084710  -9.8190135081320999 96.5724019610988478 1.2072367180301402 7.9999999999999982 183
2.5236386156056128  -9.8211955247359395 96.6141263649384854 1.2066555300765798 7.9999999999999964 184
2.5373163433253021  -9.8233621413927814 96.6555990388365558 1.2060736157017433 8.0000000000000071 185
2.5509939241652391  -9.8255139207081488 96.6968295070930139 1.2054909872843151 8.0000000000000036 186
2.5646713527313114  -9.8276514071478438 96.7378269937184712 1.2049076562969463 8.0000000000000000 187
2.5783486237352031  -9.8297751276536864 96.7786004322244935 1.2043236333516312 8.0000000000000018 188
2.5920257319920865  -9.8318855922353343 96.8191584750437642 1.2037389282437445 8.0000000000000000 189
2.6057026724183960  -9.8339832945389851 96.8595095025962678 1.2031535499947614 8.0000000000000000 190
2.6193794400296775  -9.8360687123939368 96.8996616320130215 1.2025675068936721 8.0000000000000000 191
2.6330560299385097  -9.8381423083380710 96.9396227255342353 1.2019808065371398 8.0000000000000018 192
2.6467324373525045  -9.8402045301229055 96.9794003985920909 1.2013934558684167 8.0000000000000000 193
2.6604086575723764  -9.8422558111993599 97.0190020275927765 1.2008054612150545 8.0000000000000000 194
2.6740846859900755  -9.8442965711847368 97.0584347574092021 1.2002168283254266 8.0000000000000000 195
2.6877605180869946  -9.8463272163119697 97.0977055085954959 1.1996275624041046 8.0000000000000000 196
