 # inv_tmp, energy, phys_var, phys_doublon, phys_num, step_i
0.0785689583807143  -1.4553457398376859 9.2602124562521020 0.0000000000000000 6.0000000000000000 1
0.1537591041100399  -2.0147197341715994 11.2522007277717115 0.0000000000000000 6.0000000000000000 2
0.2258604242641273  -2.5650789400069338 13.7789042251381755 0.0000000000000000 6.0000000000000000 3
0.2951580197856715  -3.1041254640791647 16.8186533058050358 0.0000000000000000 6.0000000000000000 4
0.3619113339907398  -3.6310771749852719 20.3342395472731923 0.0000000000000000 6.0000000000000000 5
0.4263603862834518  -4.1452038839794838 24.2670815504036526 0.0000000000000000 6.0000000000000000 6
0.4887496081739594  -4.6445242428041329 28.5311931060168931 0.0000000000000000 6.0000000000000000 7
0.5493536673972348  -5.1251354993330418 33.0116344640427002 0.0000000000000000 6.0000000000000000 8
0.6084904630797595  -5.5814003540768740 37.5708224188669391 0.0000000000000000 6.0000000000000000 9
0.6665137396623919  -6.0068832941546972 42.0626631436186926 0.0000000000000000 6.0000000000000000 10
0.7237879064252410  -6.3956446421674844 46.3507015525966040 0.0000000000000000 6.0000000000000000 11
0.7806553165686265  -6.7434017172804168 50.3245644293909464 0.0000000000000000 6.0000000000000000 12
0.8374077918335904  -7.0481945039827352 53.9099810593839379 0.0000000000000000 6.0000000000000000 13
0.8942700694080616  -7.3104519069209788 57.0706991582308802 0.0000000000000000 6.0000000000000000 14
0.9513967058381085  -7.5325876323822953 59.8036827702699796 0.0000000000000000 6.0000000000000000 15
1.0088793457875154  -7.7183616986640731 62.1305958539547163 0.0000000000000000 6.0000000000000000 16
1.0667595344574030  -7.8722250908155962 64.0885427119959559 0.0000000000000000 6.0000000000000000 17
1.1250428122736293  -7.9987822750021706 65.7220512636117746 0.0000000000000000 6.0000000000000000 18
1.1837113715427205  -8.1024203311276288 67.0771519311726649 0.0000000000000000 6.0000000000000000 19
1.2427340664336386  -8.1870954377156622 68.1975819270099066 0.0000000000000000 6.0000000000000000 20
1.3020736098665253  -8.2562408774304217 69.1227253878780630 0.0000000000000000 6.0000000000000000 21
1.3616913337793399  -8.3127561353270192 69.8867844846893149 0.0000000000000000 6.0000000000000000 22
1.4215500743879934  -8.3590430114141050 70.5187265326370749 0.0000000000000000 6.0000000000000000 23
1.4816157300619739  -8.3970642495758501 71.0426621842810420 0.0000000000000000 6.0000000000000000 24
1.5418579416933305  -8.4284090303987362 71.4784216340524239 0.0000000000000000 6.0000000000000000 25
1.6022502301458428  -8.4543563930502721 71.8421857131547767 0.0000000000000000 6.0000000000000000 26
1.6627698229939873  -8.4759321784944781 72.1470924056768155 0.0000000000000000 6.0000000000000000 27
1.7233973230091275  -8.4939578658631927 72.4037804884905256 0.0000000000000000 6.0000000000000000 28
1.7841163134406637  -8.5090912307993829 72.6208566545268752 0.0000000000000000 6.0000000000000000 29
1.8449129560460551  -8.5218595291290296 72.8052860821453720 0.0000000000000000 6.0000000000000000 30
1.9057756123603888  -8.5326862186100794 72.9627131146037300 0.0000000000000000 6.0000000000000000 31
1.9666945027756635  -8.5419122846352558 73.0977213657106972 0.0000000000000000 6.0000000000000000 32
2.0276614084735427  -8.5498131612052042 73.2140430010115040 0.0000000000000000 6.0000000000000000 33
2.0886694158641168  -8.5566121108099260 73.3147262707612697 0.0000000000000000 6.0000000000000000 34
2.1497127003807543  -8.5624907866068298 73.4022692339493688 0.0000000000000000 6.0000000000000000 35
2.2107863452444381  -8.5675975676605862 73.4787263618872259 0.0000000000000000 6.0000000000000000 36
2.2718861904824070  -8.5720541416236244 73.5457935213485143 0.0000000000000000 6.0000000000000000 37
2.3330087076531822  -8.5759607114582241 73.6048757875330750 0.0000000000000000 6.0000000000000000 38
2.3941508961419546  -8.5794001228965140 73.6571416488026358 0.0000000000000000 6.0000000000000000 39
2.4553101973984952  -8.5824411452220488 73.7035664334967890 0.0000000000000000 6.0000000000000000 40
2.5164844240106095  -8.5851410871495553 73.7449671972800473 0.0000000000000000 6.0000000000000000 41
2.5776717009956025  -8.5875478896539690 73.7820308364720177 0.0000000000000000 6.0000000000000000 42
2.6388704171299446  -8.5897018064017896 73.8153368179116285 0.0000000000000000 6.0000000000000000 43
2.7000791845167234  -8.5916367581459578 73.8453756203803380 0.0000000000000000 6.0000000000000000 44
2.7612968049123583  -8.5933814285699484 73.8725637504574877 0.0000000000000000 6.0000000000000000 45
2.8225222416031905  -8.5949601544128384 73.8972560136732852 0.0000000000000000 6.0000000000000000 46
2.8837545958451631  -8.5963936513296559 73.9197555792349874 0.0000000000000000 6.0000000000000000 47
2.9449930870625436  -8.5976996081013937 73.9403222648842586 0.0000000000000000 6.0000000000000000 48
3.0062370361507869  -8.5988931749307724 73.9591793808345841 0.0000000000000000 6.0000000000000000 49
3.0674858513499408  -8.5999873661982669 73.9765194029354944 0.0000000000000000 6.0000000000000000 50
3.1287390162533439  -8.6009933938640586 73.9925086910738230 0.0000000000000000 6.0000000000000000 51
3.1899960795960287  -8.6019209444201685 74.0072914261241266 0.0000000000000000 6.0000000000000000 52
3.2512566465316746  -8.6027784097195319 74.0209929049952962 0.0000000000000000 6.0000000000000000 53
3.3125203711591289  -8.6035730799772452 74.0337223065396017 0.0000000000000000 6.0000000000000000 54
3.3737869501017212  -8.6043113056334057 74.0455750197850193 0.0000000000000000 6.0000000000000000 55
3.4350561169768419  -8.6049986334925066 74.0566346089413088 0.0000000000000000 6.0000000000000000 56
3.4963276376210568  -8.6056399215397832 74.0669744760065925 0.0000000000000000 6.0000000000000000 57
3.5576013059586726  -8.6062394360239569 74.0766592708486371 0.0000000000000000 6.0000000000000000 58
3.6188769404201171  -8.6068009337452995 74.0857460897978655 0.0000000000000000 6.0000000000000000 59
3.6801543808316297  -8.6073277319639985 74.0942854966341713 0.0000000000000000 6.0000000000000000 60
3.7414334857101750  -8.6078227679203891 74.1023223940339903 0.0000000000000000 6.0000000000000000 61
3.8027141299077121  -8.6082886496149413 74.1098967688016330 0.0000000000000000 6.0000000000000000 62
3.8639962025574248  -8.6087276992160682 74.1170443303249016 0.0000000000000000 6.0000000000000000 63
3.9252796052815588  -8.6091419902350133 74.1237970585073924 0.0000000000000000 6.0000000000000000 64
3.9865642506263583  -8.6095333794193216 74.1301836747992269 0.0000000000000000 6.0000000000000000 65
4.0478500606945209  -8.6099035341619690 74.1362300477755127 0.0000000000000000 6.0000000000000000 66
4.1091369659497241  -8.6102539560954376 74.1419595429072871 0.0000000000000000 6.0000000000000000 67
4.1704249041712504  -8.6105860014343083 74.1473933246696788 0.0000000000000000 6.0000000000000000 68
4.2317138195397215  -8.6109008985418818 74.1525506178783189 0.0000000000000000 6.0000000000000000 69
4.2930036618374503  -8.6111997631230892 74.1574489340987242 0.0000000000000000 6.0000000000000000 70
4.3542943857490899  -8.6114836113845037 74.1621042680917526 0.0000000000000000 6.0000000000000000 71
4.4155859502501045  -8.6117533714508809 74.1665312685202451 0.0000000000000000 6.0000000000000000 72
4.4768783180721607  -8.6120098932844584 74.1707433865169037 0.0000000000000000 6.0000000000000000 73
4.5381714552359398  -8.6122539573167050 74.1747530051877249 0.0000000000000000 6.0000000000000000 74
4.5994653306430395  -8.6124862819715791 74.1785715526779086 0.0000000000000000 6.0000000000000000 75
4.6607599157196704  -8.6127075302332088 74.1822096010498910 0.0000000000000000 6.0000000000000000 76
4.7220551841057619  -8.6129183153889191 74.1856769529008204 0.0000000000000000 6.0000000000000000 77
4.7833511113838529  -8.6131192060597570 74.1889827173731931 0.0000000000000000 6.0000000000000000 78
4.8446476748428529  -8.6133107306147050 74.1921353769800334 0.0000000000000000 6.0000000000000000 79
4.9059448532723549  -8.6134933810511747 74.1951428464647194 0.0000000000000000 6.0000000000000000 80
4.9672426267836691  -8.6136676164128438 74.1980125247482647 0.0000000000000000 6.0000000000000000 81
5.0285409766542717  -8.6138338658059492 74.2007513408686776 0.0000000000000000 6.0000000000000000 82
5.0898398851927134  -8.6139925310665966 74.2033657946936529 0.0000000000000000 6.0000000000000000 83
5.1511393356214068  -8.6141439891245604 74.2058619930802479 0.0000000000000000 6.0000000000000000 84
5.2124393119750412  -8.6142885941026783 74.2082456820639749 0.0000000000000000 6.0000000000000000 85
5.2737397990126116  -8.6144266791856339 74.2105222755798479 0.0000000000000000 6.0000000000000000 86
5.3350407821413333  -8.6145585582874133 74.2126968811512029 0.0000000000000000 6.0000000000000000 87
5.3963422473508977  -8.6146845275426358 74.2147743229224659 0.0000000000000000 6.0000000000000000 88
5.4576441811567165  -8.6148048666437447 74.2167591623631324 0.0000000000000000 6.0000000000000000 89
5.5189465705509857  -8.6149198400428908 74.2186557169254257 0.0000000000000000 6.0000000000000000 90
5.5802494029605239  -8.6150296980350767 74.2204680769019376 0.0000000000000000 6.0000000000000000 91
5.6415526662104885  -8.6151346777367657 74.2222001206965274 0.0000000000000000 6.0000000000000000 92
5.7028563484931585  -8.6152350039723515 74.2238555286941875 0.0000000000000000 6.0000000000000000 93
5.7641604383411122  -8.6153308900793135 74.2254377958915939 0.0000000000000000 6.0000000000000000 94
5.8254649246041827  -8.6154225386413703 74.2269502434286181 0.0000000000000000 6.0000000000000000 95
5.8867697964296521  -8.6155101421578824 74.2283960291444060 0.0000000000000000 6.0000000000000000 96
5.9480750432452485  -8.6155938836565706 74.2297781572643771 0.0000000000000000 6.0000000000000000 97
6.0093806547445210  -8.6156739372557887 74.2310994873122922 0.0000000000000000 6.0000000000000000 98
6.0706866208742589  -8.6157504686818100 74.2323627423290731 0.0000000000000000 6.0000000000000000 99
6.1319929318236417  -8.6158236357458513 74.2335705164706354 0.0000000000000000 6.0000000000000000 100
6.1932995780148588  -8.6158935887850490 74.2347252820472079 0.0000000000000000 6.0000000000000000 101
6.2546065500949979  -8.6159604710709683 74.2358293960597138 0.0000000000000000 6.0000000000000000 102
6.3159138389289398  -8.6160244191889941 74.2368851062824007 0.0000000000000000 6.0000000000000000 103
6.3772214355931807  -8.6160855633912501 74.2378945569337247 0.0000000000000000 6.0000000000000000 104
6.4385293313703569  -8.6161440279257437 74.2388597939744983 0.0000000000000000 6.0000000000000000 105
6.4998375177443890  -8.6161999313437434 74.2397827700658581 0.0000000000000000 6.0000000000000000 106
6.5611459863961299  -8.6162533867874984 74.2406653492175366 0.0000000000000000 6.0000000000000000 107
6.6224547291994318  -8.6163045022599274 74.2415093111525550 0.0000000000000000 6.0000000000000000 108
6.6837637382175288  -8.6163533808778396 74.2423163554115320 0.0000000000000000 6.0000000000000000 109
6.7450730056997035  -8.6164001211100576 74.2430881052181917 0.0000000000000000 6.0000000000000000 110
6.8063825240781659  -8.6164448170016641 74.2438261111242355 0.0000000000000000 6.0000000000000000 111
6.8676922859650906  -8.6164875583854368 74.2445318544506847 0.0000000000000000 6.0000000000000000 112
6.9290022841497869  -8.6165284310814716 74.2452067505406603 0.0000000000000000 6.0000000000000000 113
6.9903125115959739  -8.6165675170858407 74.2458521518370560 0.0000000000000000 6.0000000000000000 114
7.0516229614391062  -8.6166048947491145 74.2464693507974829 0.0000000000000000 6.0000000000000000 115
7.1129336269837626  -8.6166406389454107 74.2470595826575988 0.0000000000000000 6.0000000000000000 116
7.1742445017010663  -8.6166748212326567 74.2476240280527691 0.0000000000000000 6.0000000000000000 117
7.2355555792261086  -8.6167075100046162 74.2481638155070982 0.0000000000000000 6.0000000000000000 118
7.2968668533553966  -8.6167387706352194 74.2486800237982720 0.0000000000000000 6.0000000000000000 119
7.3581783180442910  -8.6167686656157176 74.2491736842062977 0.0000000000000000 6.0000000000000000 120
7.4194899674044343  -8.6167972546850198 74.2496457826517826 0.0000000000000000 6.0000000000000000 121
7.4808017957011730  -8.6168245949537230 74.2500972617320230 0.0000000000000000 6.0000000000000000 122
7.5421137973509644  -8.6168507410221267 74.2505290226591228 0.0000000000000000 6.0000000000000000 123
7.6034259669187687  -8.6168757450925977 74.2509419271064814 0.0000000000000000 6.0000000000000000 124
7.6647382991154247  -8.6168996570766296 74.2513367989687936 0.0000000000000000 6.0000000000000000 125
7.7260507887950176  -8.6169225246968395 74.2517144260395980 0.0000000000000000 6.0000000000000000 126
7.7873634309522179  -8.6169443935842551 74.2520755616113775 0.0000000000000000 6.0000000000000000 127
7.8486762207196286  -8.6169653073710162 74.2524209260017187 0.0000000000000000 6.0000000000000000 128
7.9099891533651121  -8.6169853077788598 74.2527512080097836 0.0000000000000000 6.0000000000000000 129
7.9713022242891052  -8.6170044347035493 74.2530670663065280 0.0000000000000000 6.0000000000000000 130
8.0326154290219467  -8.6170227262954135 74.2533691307614845 0.0000000000000000 6.0000000000000000 131
8.0939287632211876  -8.6170402190362729 74.2536580037099583 0.0000000000000000 6.0000000000000000 132
8.1552422226689174  -8.6170569478128627 74.2539342611631099 0.0000000000000000 6.0000000000000000 133
8.2165558032690740  -8.6170729459869762 74.2541984539638804 0.0000000000000000 6.0000000000000000 134
8.2778695010447958  -8.6170882454624120 74.2544511088908905 0.0000000000000000 6.0000000000000000 135
8.3391833121357415  -8.6171028767490068 74.2546927297136961 0.0000000000000000 6.0000000000000000 136
8.4004972327954643  -8.6171168690237181 74.2549237982005650 0.0000000000000000 6.0000000000000000 137
8.4618112593887727  -8.6171302501890690 74.2551447750820159 0.0000000000000000 6.0000000000000000 138
8.5231253883891274  -8.6171430469289501 74.2553561009713121 0.0000000000000000 6.0000000000000000 139
8.5844396163760486  -8.6171552847619637 74.2555581972444401 0.0000000000000000 6.0000000000000000 140
8.6457539400325594  -8.6171669880924231 74.2557514668815344 0.0000000000000000 6.0000000000000000 141
8.7070683561426403  -8.6171781802590814 74.2559362952706152 0.0000000000000000 6.0000000000000000 142
8.7683828615887194  -8.6171888835817132 74.2561130509764951 0.0000000000000000 6.0000000000000000 143
8.8296974533492012  -8.6171991194056634 74.2562820864757640 0.0000000000000000 6.0000000000000000 144
8.8910121284960066  -8.6172089081444145 74.2564437388592893 0.0000000000000000 6.0000000000000000 145
8.9523268841921624  -8.6172182693203112 74.2565983305042749 0.0000000000000000 6.0000000000000000 146
9.0136417176894224  -8.6172272216034589 74.2567461697163935 0.0000000000000000 6.0000000000000000 147
9.0749566263259194  -8.6172357828489599 74.2568875513443203 0.0000000000000000 6.0000000000000000 148
9.1362716075238488  -8.6172439701324954 74.2570227573669825 0.0000000000000000 6.0000000000000000 149
9.1975866587872215  -8.6172517997843467 74.2571520574553006 0.0000000000000000 6.0000000000000000 150
9.2589017776996094  -8.6172592874219269 74.2572757095091731 0.0000000000000000 6.0000000000000000 151
9.3202169619219664  -8.6172664479809153 74.2573939601714130 0.0000000000000000 6.0000000000000000 152
9.3815322091904747  -8.6172732957449956 74.2575070453186328 0.0000000000000000 6.0000000000000000 153
9.4428475173144282  -8.6172798443743233 74.2576151905313964 0.0000000000000000 6.0000000000000000 154
9.5041628841741801  -8.6172861069327116 74.2577186115429129 0.0000000000000000 6.0000000000000000 155
9.5654783077190952  -8.6172920959137009 74.2578175146694548 0.0000000000000000 6.0000000000000000 156
9.6267937859655817  -8.6172978232653943 74.2579120972204691 0.0000000000000000 6.0000000000000000 157
9.6881093169951402  -8.6173033004142887 74.2580025478920334 0.0000000000000000 6.0000000000000000 158
9.7494248989524621  -8.6173085382880252 74.2580890471425050 0.0000000000000000 6.0000000000000000 159
9.8107405300435708  -8.6173135473371740 74.2581717675520707 0.0000000000000000 6.0000000000000000 160
9.8720562085340049  -8.6173183375560214 74.2582508741662366 0.0000000000000000 6.0000000000000000 161
9.9333719327470522  -8.6173229185025093 74.2583265248248381 0.0000000000000000 6.0000000000000000 162
9.9946877010619986  -8.6173272993172603 74.2583988704763271 0.0000000000000000 6.0000000000000000 163
10.0560035119124471  -8.6173314887418009 74.2584680554786303 0.0000000000000000 6.0000000000000000 164
10.1173193637846648  -8.6173354951359649 74.2585342178865062 0.0000000000000000 6.0000000000000000 165
10.1786352552159745  -8.6173393264945624 74.2585974897267675 0.0000000000000000 6.0000000000000000 166
10.2399511847931723  -8.6173429904633068 74.2586579972613379 0.0000000000000000 6.0000000000000000 167
10.3012671511510163  -8.6173464943540381 74.2587158612386986 0.0000000000000000 6.0000000000000000 168
10.3625831529707195  -8.6173498451593122 74.2587711971346209 0.0000000000000000 6.0000000000000000 169
10.4238991889785044  -8.6173530495663311 74.2588241153823674 0.0000000000000000 6.0000000000000000 170
10.4852152579441835  -8.6173561139702635 74.2588747215925196 0.0000000000000000 6.0000000000000000 171
10.5465313586797915  -8.6173590444869976 74.2589231167636967 0.0000000000000000 6.0000000000000000 172
10.6078474900382318  -8.6173618469653306 74.2589693974837814 0.0000000000000000 6.0000000000000000 173
10.6691636509119920  -8.6173645269986299 74.2590136561224199 0.0000000000000000 6.0000000000000000 174
10.7304798402318546  -8.6173670899359784 74.2590559810152229 0.0000000000000000 6.0000000000000000 175
10.7917960569656852  -8.6173695408928399 74.2590964566397673 0.0000000000000000 6.0000000000000000 176
10.8531123001172194  -8.6173718847612566 74.2591351637840944 0.0000000000000000 6.0000000000000000 177
10.9144285687249081  -8.6173741262196142 74.2591721797078037 0.0000000000000000 6.0000000000000000 178
10.9757448618607807  -8.6173762697419498 74.2592075782959284 0.0000000000000000 6.0000000000000000 179
11.0370611786293562  -8.6173783196068872 74.2592414302064725 0.0000000000000000 6.0000000000000000 180
11.0983775181665631  -8.6173802799061665 74.2592738030111548 0.0000000000000000 6.0000000000000000 181
11.1596938796387146  -8.6173821545528106 74.2593047613302986 0.0000000000000000 6.0000000000000000 182
11.2210102622415011  -8.6173839472889053 74.2593343669615251 0.0000000000000000 6.0000000000000000 183
11.2823266651990171  -8.6173856616930884 74.2593626790030612 0.0000000000000000 6.0000000000000000 184
11.3436430877628069  -8.6173873011876818 74.2593897539718029 0.0000000000000000 6.0000000000000000 185
11.4049595292109593  -8.6173888690455023 74.2594156459157375 0.0000000000000000 6.0000000000000000 186
11.4662759888472099  -8.6173903683964070 74.2594404065218896 0.0000000000000000 6.0000000000000000 187
11.5275924660000779  -8.6173918022335307 74.2594640852195056 0.0000000000000000 6.0000000000000000 188
11.5889089600220370  -8.6173931734192522 74.2594867292784500 0.0000000000000000 6.0000000000000000 189
11.6502254702886958  -8.6173944846909052 74.2595083839037216 0.0000000000000000 6.0000000000000000 190
11.7115419961980134  -8.6173957386662572 74.2595290923254936 0.0000000000000000 6.0000000000000000 191
11.7728585371695509  -8.6173969378486959 74.2595488958853878 0.0000000000000000 6.0000000000000000 192
11.8341750926437168  -8.6173980846322618 74.2595678341190251 0.0000000000000000 6.0000000000000000 193
11.8954916620810653  -8.6173991813063999 74.2595859448347539 0.0000000000000000 6.0000000000000000 194
11.9568082449615947  -8.6174002300605359 74.2596032641891952 0.0000000000000000 6.0000000000000000 195
12.0181248407840879  -8.6174012329884455 74.2596198267594900 0.0000000000000000 6.0000000000000000 196
