 # inv_tmp, energy, phys_var, phys_doublon, phys_num, step_i
0.0276207685145774  -0.4092814052027826 8.1265551365651092 0.0000000000000000 0.0000000000000000 1
0.0550743834227877  -0.6290473248393862 8.3645029967509874 0.0000000000000000 0.0000000000000000 2
0.0823629396065133  -0.8482983811024463 8.6810924231215623 0.0000000000000000 0.0000000000000000 3
0.1094891833419571  -1.0665784127219524 9.0757721649348575 0.0000000000000000 0.0000000000000000 4
0.1364564256538577  -1.2834672466543431 9.5473528317433676 0.0000000000000000 0.0000000000000000 5
0.1632684573042418  -1.4985814047269175 10.0940438695045067 0.0000000000000000 0.0000000000000000 6
0.1899294691013919  -1.7115733868883911 10.7134979550574041 0.0000000000000000 0.0000000000000000 7
0.2164439801587964  -1.9221298197410430 11.4028608217564624 0.0000000000000000 0.0000000000000000 8
0.2428167756065411  -2.1299688007022275 12.1588248031774455 0.0000000000000000 0.0000000000000000 9
0.2690528541786686  -2.3348367779019901 12.9776847107828797 0.0000000000000000 0.0000000000000000 10
0.2951573851672313  -2.5365052869511135 13.8553949892854327 0.0000000000000000 0.0000000000000000 11
0.3211356735150715  -2.7347678235243884 14.7876273756741909 0.0000000000000000 0.0000000000000000 12
0.3469931313504012  -2.9294370721841037 15.7698284957799189 0.0000000000000000 0.0000000000000000 13
0.3727352540517635  -3.1203426443571951 16.7972769542739897 0.0000000000000000 0.0000000000000000 14
0.3983675989506286  -3.3073294088810519 17.8651395142553326 0.0000000000000000 0.0000000000000000 15
0.4238957649898503  -3.4902564331261918 18.9685259375312754 0.0000000000000000 0.0000000000000000 16
0.4493253720066077  -3.6689964961515908 20.1025419905723020 0.0000000000000000 0.0000000000000000 17
0.4746620387406019  -3.8434360909018199 21.2623400410829753 0.0000000000000000 0.0000000000000000 18
0.4999113591262274  -4.0134758018271377 22.4431666018601490 0.0000000000000000 0.0000000000000000 19
0.5250788768620714  -4.1790309277805306 23.6404061428137027 0.0000000000000000 0.0000000000000000 20
0.5501700586238643  -4.3400322166826948 24.8496205022243828 0.0000000000000000 0.0000000000000000 21
0.5751902665717302  -4.4964265863718200 26.0665832899562808 0.0000000000000000 0.0000000000000000 22
0.6001447309860015  -4.6481777227716030 27.2873087861615033 0.0000000000000000 0.0000000000000000 23
0.6250385239465325  -4.7952664692169549 28.5080749903560005 0.0000000000000000 0.0000000000000000 24
0.6498765349568700  -4.9376909466631549 29.7254406545277234 0.0000000000000000 0.0000000000000000 25
0.6746634493225252  -5.0754663709982859 30.9362563248623559 0.0000000000000000 0.0000000000000000 26
0.6994037299420524  -5.2086245586280508 32.1376696043529932 0.0000000000000000 0.0000000000000000 27
0.7241016029823966  -5.3372131332809722 33.3271250193004391 0.0000000000000000 0.0000000000000000 28
0.7487610477069443  -5.4612944645331982 34.5023590157581026 0.0000000000000000 0.0000000000000000 29
0.7733857905242773  -5.5809443813624755 35.6613907202093401 0.0000000000000000 0.0000000000000000 30
0.7979793031424328  -5.6962507120733061 36.8025091688306532 0.0000000000000000 0.0000000000000000 31
0.8225448045578900  -5.8073117055299948 37.9242577417030731 0.0000000000000000 0.0000000000000000 32
0.8470852664866801  -5.9142343883958990 39.0254165352368432 0.0000000000000000 0.0000000000000000 33
0.8716034217592740  -6.0171329097658814 40.1049833728892224 0.0000000000000000 0.0000000000000000 34
0.8961017751504089  -6.1161269190105418 41.1621540972318130 0.0000000000000000 0.0000000000000000 35
0.9205826160965980  -6.2113400156200038 42.1963027122962444 0.0000000000000000 0.0000000000000000 36
0.9450480327630024  -6.3028983020565690 43.2069618604786001 0.0000000000000000 0.0000000000000000 37
0.9694999269521553  -6.3909290627007804 44.1938040290786915 0.0000000000000000 0.0000000000000000 38
0.9939400293939462  -6.4755595843749347 45.1566237928433338 0.0000000000000000 0.0000000000000000 39
1.0183699150139216  -6.5569161269914016 46.0953213146573475 0.0000000000000000 0.0000000000000000 40
1.0427910178404307  -6.6351230468190963 47.0098872496861659 0.0000000000000000 0.0000000000000000 41
1.0672046452763599  -6.7103020698037019 47.9003891306964817 0.0000000000000000 0.0000000000000000 42
1.0916119915248872  -6.7825717083461790 48.7669592549598576 0.0000000000000000 0.0000000000000000 43
1.1160141500184049  -6.8520468119053382 49.6097840463300628 0.0000000000000000 0.0000000000000000 44
1.1404121247538144  -6.9188382396659307 50.4290948294702943 0.0000000000000000 0.0000000000000000 45
1.1648068404847682  -6.9830526421973396 51.2251599260697503 0.0000000000000000 0.0000000000000000 46
1.1891991517616385  -7.0447923383998781 51.9982779642493114 0.0000000000000000 0.0000000000000000 47
1.2135898508429839  -7.1041552739720730 52.7487722810807469 0.0000000000000000 0.0000000000000000 48
1.2379796745283180  -7.1612350480139551 53.4769862930530877 0.0000000000000000 0.0000000000000000 49
1.2623693099815858  -7.2161209950982697 54.1832797092502574 0.0000000000000000 0.0000000000000000 50
1.2867593996285198  -7.2688983110959411 54.8680254658626581 0.0000000000000000 0.0000000000000000 51
1.3111505452197607  -7.3196482121499189 55.5316072674486563 0.0000000000000000 0.0000000000000000 52
1.3355433111559605  -7.3684481173831866 56.1744176292197110 0.0000000000000000 0.0000000000000000 53
1.3599382271718563  -7.4153718471449119 56.7968563247928202 0.0000000000000000 0.0000000000000000 54
1.3843357904741560  -7.4604898298001263 57.3993291547202773 0.0000000000000000 0.0000000000000000 55
1.4087364674236798  -7.5038693112186134 57.9822469621590528 0.0000000000000000 0.0000000000000000 56
1.4331406948461471  -7.5455745621948953 58.5460248328916038 0.0000000000000000 0.0000000000000000 57
1.4575488810487918  -7.5856670800166954 59.0910814272537692 0.0000000000000000 0.0000000000000000 58
1.4819614066120406  -7.6242057812852106 59.6178384011536622 0.0000000000000000 0.0000000000000000 59
1.5063786250172368  -7.6612471838724518 60.1267198821333437 0.0000000000000000 0.0000000000000000 60
1.5308008631630567  -7.6968455765790091 60.6181519742525410 0.0000000000000000 0.0000000000000000 61
1.5552284218151542  -7.7310531756331056 61.0925622724255248 0.0000000000000000 0.0000000000000000 62
1.5796615760258226  -7.7639202676537593 61.5503793727231354 0.0000000000000000 0.0000000000000000 63
1.6041005755532676  -7.7954953390947690 61.9920323700968225 0.0000000000000000 0.0000000000000000 64
1.6285456453034528  -7.8258251924996776 62.4179503390437560 0.0000000000000000 0.0000000000000000 65
1.6529969858115834  -7.8549550501394645 62.8285617959842781 0.0000000000000000 0.0000000000000000 66
1.6774547737750400  -7.8829286457832479 63.2242941446424567 0.0000000000000000 0.0000000000000000 67
1.7019191626450623  -7.9097883054760665 63.6055731075932300 0.0000000000000000 0.0000000000000000 68
1.7263902832806268  -7.9355750182752436 63.9728221484509092 0.0000000000000000 0.0000000000000000 69
1.7508682446647892  -7.9603284979353610 64.3264618900048646 0.0000000000000000 0.0000000000000000 70
1.7753531346811529  -7.9840872365388327 64.6669095340437963 0.0000000000000000 0.0000000000000000 71
1.7998450209461270  -8.0068885510505439 64.9945782887170367 0.0000000000000000 0.0000000000000000 72
1.8243439516910869  -8.0287686237369869 65.3098768091346074 0.0000000000000000 0.0000000000000000 73
1.8488499566874812  -8.0497625373377240 65.6132086565634154 0.0000000000000000 0.0000000000000000 74
1.8733630482072225  -8.0699043058138269 65.9049717810876814 0.0000000000000000 0.0000000000000000 75
1.8978832220103343  -8.0892269014285674 66.1855580320180650 0.0000000000000000 0.0000000000000000 76
1.9224104583517254  -8.1077622788421593 66.4553526996875945 0.0000000000000000 0.0000000000000000 77
1.9469447229990924  -8.1255413968282078 66.7147340916024660 0.0000000000000000 0.0000000000000000 78
1.9714859682542658  -8.1425942381459961 66.9640731452423381 0.0000000000000000 0.0000000000000000 79
1.9960341339707444  -8.1589498280319006 67.2037330791531531 0.0000000000000000 0.0000000000000000 80
2.0205891485607275  -8.1746362517056745 67.4340690833556664 0.0000000000000000 0.0000000000000000 81
2.0451509299855570  -8.1896806712246750 67.6554280495229534 0.0000000000000000 0.0000000000000000 82
2.0697193867241479  -8.2041093419609865 67.8681483408604720 0.0000000000000000 0.0000000000000000 83
2.0942944187146573  -8.2179476289239020 68.0725596011626806 0.0000000000000000 0.0000000000000000 84
2.1188759182653314  -8.2312200231029067 68.2689826021208717 0.0000000000000000 0.0000000000000000 85
2.1434637709311253  -8.2439501579645729 68.4577291276151243 0.0000000000000000 0.0000000000000000 86
2.1680578563533368  -8.2561608262000732 68.6391018934440922 0.0000000000000000 0.0000000000000000 87
2.1926580490600980  -8.2678739967884791 68.8133945007177488 0.0000000000000000 0.0000000000000000 88
2.2172642192261263  -8.2791108324139628 68.9808914209658894 0.0000000000000000 0.0000000000000000 89
2.2418762333906708  -8.2898917072524547 69.1418680108864834 0.0000000000000000 0.0000000000000000 90
2.2664939551330394  -8.3002362251245909 69.2965905545753174 0.0000000000000000 0.0000000000000000 91
2.2911172457055238  -8.3101632379966937 69.4453163310317905 0.0000000000000000 0.0000000000000000 92
2.3157459646239165  -8.3196908647995400 69.5882937047225312 0.0000000000000000 0.0000000000000000 93
2.3403799702161256  -8.3288365105256297 69.7257622370014190 0.0000000000000000 0.0000000000000000 94
2.3650191201296829  -8.3376168855588801 69.8579528162242838 0.0000000000000000 0.0000000000000000 95
2.3896632717991735  -8.3460480251862172 69.9850878044560432 0.0000000000000000 0.0000000000000000 96
2.4143122828748114  -8.3541453092377083 70.1073811987464097 0.0000000000000000 0.0000000000000000 97
2.4389660116135419  -8.3619234818006642 70.2250388050376557 0.0000000000000000 0.0000000000000000 98
2.4636243172341805  -8.3693966709531580 70.3382584228681367 0.0000000000000000 0.0000000000000000 99
2.4882870602381932  -8.3765784084633950 70.4472300391401802 0.0000000000000000 0.0000000000000000 100
2.5129541026977806  -8.3834816494033859 70.5521360293327007 0.0000000000000000 0.0000000000000000 101
2.5376253085129901  -8.3901187916276374 70.6531513646497444 0.0000000000000000 0.0000000000000000 102
2.5623005436395778  -8.3965016950707518 70.7504438237109241 0.0000000000000000 0.0000000000000000 103
2.5869796762893666  -8.4026417008210625 70.8441742075016094 0.0000000000000000 0.0000000000000000 104
2.6116625771048252  -8.4085496499309684 70.9344965564106360 0.0000000000000000 0.0000000000000000 105
2.6363491193095610  -8.4142359019283290 71.0215583682913945 0.0000000000000000 0.0000000000000000 106
2.6610391788363952  -8.4197103529970327 71.1055008165843105 0.0000000000000000 0.0000000000000000 107
2.6857326344346424  -8.4249824537984495 71.1864589676380604 0.0000000000000000 0.0000000000000000 108
2.7104293677581381  -8.4300612269092667 71.2645619964608272 0.0000000000000000 0.0000000000000000 109
2.7351292634355429  -8.4349552838545740 71.3399334002204455 0.0000000000000000 0.0000000000000000 110
2.7598322091243515  -8.4396728417184761 71.4126912088961490 0.0000000000000000 0.0000000000000000 111
2.7845380955499768  -8.4442217393177970 71.4829481925621906 0.0000000000000000 0.0000000000000000 112
2.8092468165312283  -8.4486094529272613 71.5508120648547106 0.0000000000000000 0.0000000000000000 113
2.8339582689934164  -8.4528431115474820 71.6163856822404483 0.0000000000000000 0.0000000000000000 114
2.8586723529702436  -8.4569295117096352 71.6797672387670985 0.0000000000000000 0.0000000000000000 115
2.8833889715955943  -8.4608751318130579 71.7410504560308482 0.0000000000000000 0.0000000000000000 116
2.9081080310862468  -8.4646861459942002 71.8003247681474619 0.0000000000000000 0.0000000000000000 117
2.9328294407164681  -8.4683684375273423 71.8576755015604647 0.0000000000000000 0.0000000000000000 118
2.9575531127854005  -8.4719276117592450 71.9131840495610390 0.0000000000000000 0.0000000000000000 119
2.9822789625780732  -8.4753690085814863 71.9669280414321264 0.0000000000000000 0.0000000000000000 120
3.0070069083208066  -8.4786977144456692 72.0189815061633141 0.0000000000000000 0.0000000000000000 121
3.0317368711317463  -8.4819185739278460 72.0694150307122925 0.0000000000000000 0.0000000000000000 122
3.0564687749671777  -8.4850362008496845 72.1182959128158956 0.0000000000000000 0.0000000000000000 123
3.0812025465642314  -8.4880549889647323 72.1656883083773124 0.0000000000000000 0.0000000000000000 124
3.1059381153805501  -8.4909791222189632 72.2116533734752437 0.0000000000000000 0.0000000000000000 125
3.1306754135314327  -8.4938125845954531 72.2562494010601881 0.0000000000000000 0.0000000000000000 126
3.1554143757249085  -8.4965591695535583 72.2995319524172118 0.0000000000000000 0.0000000000000000 127
3.1801549391951980  -8.4992224890734249 72.3415539834882964 0.0000000000000000 0.0000000000000000 128
3.2048970436349271  -8.5018059823169256 72.3823659661574652 0.0000000000000000 0.0000000000000000 129
3.2296406311264620  -8.5043129239165438 72.4220160046126011 0.0000000000000000 0.0000000000000000 130
3.2543856460726781  -8.5067464319036432 72.4605499469036545 0.0000000000000000 0.0000000000000000 131
3.2791320351274558  -8.5091094752879197 72.4980114918245704 0.0000000000000000 0.0000000000000000 132
3.3038797471261576  -8.5114048812996614 72.5344422912493343 0.0000000000000000 0.0000000000000000 133
3.3286287330163207  -8.5136353423065785 72.5698820480577069 0.0000000000000000 0.0000000000000000 134
3.3533789457887724  -8.5158034224167842 72.6043686097872012 0.0000000000000000 0.0000000000000000 135
3.3781303404093443  -8.5179115637795295 72.6379380581505529 0.0000000000000000 0.0000000000000000 136
3.4028828737513575  -8.5199620925949837 72.6706247945574546 0.0000000000000000 0.0000000000000000 137
3.4276365045290138  -8.5219572248442716 72.7024616217798894 0.0000000000000000 0.0000000000000000 138
3.4523911932318119  -8.5238990717508827 72.7334798219004028 0.0000000000000000 0.0000000000000000 139
3.4771469020601051  -8.5257896449840480 72.7637092306793534 0.0000000000000000 0.0000000000000000 140
3.5019035948618913  -8.5276308616147301 72.7931783084780619 0.0000000000000000 0.0000000000000000 141
3.5266612370708974  -8.5294245488344504 72.8219142078703214 0.0000000000000000 0.0000000000000000 142
3.5514197956460469  -8.5311724484469345 72.8499428380739147 0.0000000000000000 0.0000000000000000 143
3.5761792390123444  -8.5328762211423062 72.8772889263304080 0.0000000000000000 0.0000000000000000 144
3.6009395370032267  -8.5345374505631852 72.9039760763582194 0.0000000000000000 0.0000000000000000 145
3.6257006608044189  -8.5361576471718905 72.9300268240013594 0.0000000000000000 0.0000000000000000 146
3.6504625828993120  -8.5377382519275038 72.9554626901930305 0.0000000000000000 0.0000000000000000 147
3.6752252770158793  -8.5392806397813317 72.9803042313486401 0.0000000000000000 0.0000000000000000 148
3.6999887180751512  -8.5407861229990019 73.0045710873012013 0.0000000000000000 0.0000000000000000 149
3.7247528821412392  -8.5422559543170937 73.0282820268867710 0.0000000000000000 0.0000000000000000 150
3.7495177463729190  -8.5436913299419643 73.0514549912849702 0.0000000000000000 0.0000000000000000 151
3.7742832889767528  -8.5450933923980905 73.0741071352158542 0.0000000000000000 0.0000000000000000 152
3.7990494891617570  -8.5464632332329771 73.0962548660905895 0.0000000000000000 0.0000000000000000 153
3.8238163270955825  -8.5478018955854154 73.1179138812098302 0.0000000000000000 0.0000000000000000 154
3.8485837838621992  -8.5491103766235987 73.1390992031007698 0.0000000000000000 0.0000000000000000 155
3.8733518414210666  -8.5503896298593265 73.1598252130793725 0.0000000000000000 0.0000000000000000 156
3.8981204825677516  -8.5516405673442435 73.1801056831216243 0.0000000000000000 0.0000000000000000 157
3.9228896908959858  -8.5528640617538709 73.1999538061241992 0.0000000000000000 0.0000000000000000 158
3.9476594507611207  -8.5540609483648922 73.2193822246310901 0.0000000000000000 0.0000000000000000 159
3.9724297472449575  -8.5552320269308897 73.2384030581004311 0.0000000000000000 0.0000000000000000 160
3.9972005661219185  -8.5563780634615973 73.2570279287820370 0.0000000000000000 0.0000000000000000 161
4.0219718938265272  -8.5574997919104128 73.2752679862731213 0.0000000000000000 0.0000000000000000 162
4.0467437174221690  -8.5585979157747261 73.2931339308171914 0.0000000000000000 0.0000000000000000 163
4.0715160245710926  -8.5596731096134278 73.3106360354076969 0.0000000000000000 0.0000000000000000 164
4.0962888035056224  -8.5607260204857862 73.3277841667558334 0.0000000000000000 0.0000000000000000 165
4.1210620430005473  -8.5617572693156241 73.3445878051789748 0.0000000000000000 0.0000000000000000 166
4.1458357323466446  -8.5627674521845538 73.3610560634631810 0.0000000000000000 0.0000000000000000 167
4.1706098613253246  -8.5637571415579217 73.3771977047518362 0.0000000000000000 0.0000000000000000 168
4.1953844201843280  -8.5647268874468701 73.3930211595090611 0.0000000000000000 0.0000000000000000 169
4.2201593996144791  -8.5656772185097410 73.4085345416048369 0.0000000000000000 0.0000000000000000 170
4.2449347907274344  -8.5666086430960426 73.4237456635665353 0.0000000000000000 0.0000000000000000 171
4.2697105850344013  -8.5675216502357792 73.4386620510388184 0.0000000000000000 0.0000000000000000 172
4.2944867744258000  -8.5684167105771021 73.4532909564930492 0.0000000000000000 0.0000000000000000 173
4.3192633511518270  -8.5692942772748744 73.4676393722241698 0.0000000000000000 0.0000000000000000 174
4.3440403078038905  -8.5701547868327417 73.4817140426720528 0.0000000000000000 0.0000000000000000 175
4.3688176372968908  -8.5709986599010755 73.4955214761018141 0.0000000000000000 0.0000000000000000 176
4.3935953328523123  -8.5718263020331413 73.5090679556765849 0.0000000000000000 0.0000000000000000 177
4.4183733879820899  -8.5726381044016620 73.5223595499542171 0.0000000000000000 0.0000000000000000 178
4.4431517964732334  -8.5734344444778277 73.5354021228376098 0.0000000000000000 0.0000000000000000 179
4.4679305523731747  -8.5742156866747372 73.5482013430074630 0.0000000000000000 0.0000000000000000 180
4.4927096499758026  -8.5749821829571680 73.5607626928644862 0.0000000000000000 0.0000000000000000 181
4.5174890838081696  -8.5757342734193998 73.5730914770065283 0.0000000000000000 0.0000000000000000 182
4.5422688486178462  -8.5764722868328409 73.5851928302653420 0.0000000000000000 0.0000000000000000 183
4.5670489393608724  -8.5771965411649660 73.5970717253259181 0.0000000000000000 0.0000000000000000 184
4.5918293511903174  -8.5779073440712068 73.6087329799505881 0.0000000000000000 0.0000000000000000 185
4.6166100794453957  -8.5786049933611110 73.6201812638287265 0.0000000000000000 0.0000000000000000 186
4.6413911196411251  -8.5792897774402324 73.6314211050716665 0.0000000000000000 0.0000000000000000 187
4.6661724674585079  -8.5799619757289722 73.6424568963720674 0.0000000000000000 0.0000000000000000 188
4.6909541187352053  -8.5806218590596544 73.6532929008449742 0.0000000000000000 0.0000000000000000 189
4.7157360694566917  -8.5812696900529701 73.6639332575681749 0.0000000000000000 0.0000000000000000 190
4.7405183157478579  -8.5819057234749216 73.6743819868373748 0.0000000000000000 0.0000000000000000 191
4.7653008538650603  -8.5825302065752425 73.6846429951513073 0.0000000000000000 0.0000000000000000 192
4.7900836801885731  -8.5831433794083836 73.6947200799419306 0.0000000000000000 0.0000000000000000 193
4.8148667912154517  -8.5837454751379312 73.7046169340624999 0.0000000000000000 0.0000000000000000 194
4.8396501835527594  -8.5843367203253660 73.7143371500469016 0.0000000000000000 0.0000000000000000 195
4.8644338539111764  -8.5849173352040058 73.7238842241525276 0.0000000000000000 0.0000000000000000 196
