 # inv_tmp, energy, phys_var, phys_doublon, phys_num, step_i
0.0789698020147190  -1.3261366873786236 11.1433647155867579 0.0000000000000000 6.0000000000000000 1
0.1535283140932297  -2.0538261207702004 13.1476281177692069 0.0000000000000000 6.0000000000000000 2
0.2245127324229383  -2.7245422353025650 15.7987074268733902 0.0000000000000000 6.0000000000000000 3
0.2926407293235723  -3.3372746797470390 18.9547368905501159 0.0000000000000000 6.0000000000000000 4
0.3584665691990995  -3.8966042003370225 22.4797818585657438 0.0000000000000000 6.0000000000000000 5
0.4224079534802701  -4.4085559969469141 26.2486409869636432 0.0000000000000000 6.0000000000000000 6
0.4847966718541726  -4.8780860364718359 30.1455180132941649 0.0000000000000000 6.0000000000000000 7
0.5459213704711625  -5.3082499888052563 34.0630053296631985 0.0000000000000000 6.0000000000000000 8
0.6060506099694988  -5.7004898665243484 37.9038788757831782 0.0000000000000000 6.0000000000000000 9
0.6654378558406994  -6.0553985987653913 41.5849933572721966 0.0000000000000000 6.0000000000000000 10
0.7243158115199744  -6.3734913004771618 45.0412432096723379 0.0000000000000000 6.0000000000000000 11
0.7828877696565536  -6.6557349982981631 48.2278187307085986 0.0000000000000000 6.0000000000000000 12
0.8413211509674507  -6.9037755322115899 51.1200117101034834 0.0000000000000000 6.0000000000000000 13
0.8997453451947214  -7.1199164847474545 53.7108366994719120 0.0000000000000000 6.0000000000000000 14
0.9582536751025937  -7.3069501108754986 56.0073089409527043 0.0000000000000000 6.0000000000000000 15
1.0169081641402253  -7.4679349900345571 58.0263112712035038 0.0000000000000000 6.0000000000000000 16
1.0757455875571198  -7.6059860186920556 59.7907640089460841 0.0000000000000000 6.0000000000000000 17
1.1347836016254809  -7.7241101725765731 61.3264944769945686 0.0000000000000000 6.0000000000000000 18
1.1940262126845147  -7.8250969671470250 62.6599277897481244 0.0000000000000000 6.0000000000000000 19
1.2534682581834227  -7.9114582589986240 63.8165423796368643 0.0000000000000000 6.0000000000000000 20
1.3130988519072673  -7.9854060789066148 64.8199485327326101 0.0000000000000000 6.0000000000000000 21
1.3729038995846750  -8.0488564518686943 65.6914280896677383 0.0000000000000000 6.0000000000000000 22
1.4328678534578518  -8.1034489600635773 66.4497890941403853 0.0000000000000000 6.0000000000000000 23
1.4929748816767419  -8.1505743928469752 67.1114189772117697 0.0000000000000000 6.0000000000000000 24
1.5532096083802176  -8.1914052876244288 67.6904512033551384 0.0000000000000000 6.0000000000000000 25
1.6135575506288438  -8.2269261358135637 68.1989872753819100 0.0000000000000000 6.0000000000000000 26
1.6740053484577324  -8.2579614514077946 68.6473368067451872 0.0000000000000000 6.0000000000000000 27
1.7345408584572111  -8.2852008512553859 69.0442532955154036 0.0000000000000000 6.0000000000000000 28
1.7951531607078253  -8.3092208896151885 69.3971533517747332 0.0000000000000000 6.0000000000000000 29
1.8558325133687921  -8.3305037323035460 69.7123136551808500 0.0000000000000000 6.0000000000000000 30
1.9165702779368070  -8.3494529335721364 69.9950439181635033 0.0000000000000000 6.0000000000000000 31
1.9773588302246703  -8.3664066540356927 70.2498364331570144 0.0000000000000000 6.0000000000000000 32
2.0381914666115009  -8.3816486729410080 70.4804939919650195 0.0000000000000000 6.0000000000000000 33
2.0990623113993352  -8.3954175303485652 70.6902384978779850 0.0000000000000000 6.0000000000000000 34
2.1599662286466819  -8.4079141014432484 70.8818027231190229 0.0000000000000000 6.0000000000000000 35
2.2208987402496252  -8.4193078662862995 71.0575075734758030 0.0000000000000000 6.0000000000000000 36
2.2818559510272847  -8.4297420994894239 71.2193270194154735 0.0000000000000000 6.0000000000000000 37
2.3428344809461952  -8.4393381683993560 71.3689426051900000 0.0000000000000000 6.0000000000000000 38
2.4038314042532125  -8.4481990966549958 71.5077891926822815 0.0000000000000000 6.0000000000000000 39
2.4648441950877977  -8.4564125227194715 71.6370933555643319 0.0000000000000000 6.0000000000000000 40
2.5258706790508234  -8.4640531600034734 71.7579056215142828 0.0000000000000000 6.0000000000000000 41
2.5869089901778874  -8.4711848460597707 71.8711275692327831 0.0000000000000000 6.0000000000000000 42
2.6479575327740603  -8.4778622525356155 71.9775346227490331 0.0000000000000000 6.0000000000000000 43
2.7090149475970318  -8.4841323146106404 72.0777952461191518 0.0000000000000000 6.0000000000000000 44
2.7700800819159932  -8.4900354280549593 72.1724871244091730 0.0000000000000000 6.0000000000000000 45
2.8311519630177711  -8.4956064534012832 72.2621108188882886 0.0000000000000000 6.0000000000000000 46
2.8922297747757528  -8.5008755596841272 72.3471013028183165 0.0000000000000000 6.0000000000000000 47
2.9533128369389003  -8.5058689344619864 72.4278377165187521 0.0000000000000000 6.0000000000000000 48
3.0144005868365502  -8.5106093821610074 72.5046516242489361 0.0000000000000000 6.0000000000000000 49
3.0754925632293260  -8.5151168289602701 72.5778340089154597 0.0000000000000000 6.0000000000000000 50
3.1365883920673161  -8.5194087493169945 72.6476412020375335 0.0000000000000000 6.0000000000000000 51
3.1976877739439549  -8.5235005266723611 72.7142999143942035 0.0000000000000000 6.0000000000000000 52
3.2587904730579837  -8.5274057587788761 72.7780115061896993 0.0000000000000000 6.0000000000000000 53
3.3198963075169527  -8.5311365163619683 72.8389556134514748 0.0000000000000000 6.0000000000000000 54
3.3810051408341892  -8.5347035624027168 72.8972932289427291 0.0000000000000000 6.0000000000000000 55
3.4421168744873767  -8.5381165381491559 72.9531693204800007 0.0000000000000000 6.0000000000000000 56
3.5032314414211769  -8.5413841209854358 73.0067150566722489 0.0000000000000000 6.0000000000000000 57
3.5643488003889265  -8.5445141584747724 73.0580496993056414 0.0000000000000000 6.0000000000000000 58
3.6254689310395869  -8.5475137822141090 73.1072822125370863 0.0000000000000000 6.0000000000000000 59
3.6865918296659879  -8.5503895045718217 73.1545126314316576 0.0000000000000000 6.0000000000000000 60
3.7477175055392493  -8.5531473009051489 73.1998332259510391 0.0000000000000000 6.0000000000000000 61
3.8088459777620614  -8.5557926794555961 73.2433294910700710 0.0000000000000000 6.0000000000000000 62
3.8699772725805595  -8.5583307407852782 73.2850809891044435 0.0000000000000000 6.0000000000000000 63
3.9311114211008262  -8.5607662283345416 73.3251620664411519 0.0000000000000000 6.0000000000000000 64
3.9922484573616748  -8.5631035714425643 73.3636424635607796 0.0000000000000000 6.0000000000000000 65
4.0533884167204857  -8.5653469219706633 73.4005878344346883 0.0000000000000000 6.0000000000000000 66
4.1145313345134458  -8.5675001854970319 73.4360601889939062 0.0000000000000000 6.0000000000000000 67
4.1756772449556427  -8.5695670479064283 73.4701182703348650 0.0000000000000000 6.0000000000000000 68
4.2368261802502136  -8.5715509980752014 73.5028178765957705 0.0000000000000000 6.0000000000000000 69
4.2979781698791086  -8.5734553472471084 73.5342121359606296 0.0000000000000000 6.0000000000000000 70
4.3591332400510252  -8.5752832456063803 73.5643517419894408 0.0000000000000000 6.0000000000000000 71
4.4202914132848381  -8.5770376964784099 73.5932851553969130 0.0000000000000000 6.0000000000000000 72
4.4814527081092868  -8.5787215685239282 73.6210587774854446 0.0000000000000000 6.0000000000000000 73
4.5426171388618819  -8.5803376062373342 73.6477170996541872 0.0000000000000000 6.0000000000000000 74
4.6037847155720240  -8.5818884390128076 73.6733028327364110 0.0000000000000000 6.0000000000000000 75
4.6649554439150709  -8.5833765890020501 73.6978570193480493 0.0000000000000000 6.0000000000000000 76
4.7261293252257186  -8.5848044779530017 73.7214191319415306 0.0000000000000000 6.0000000000000000 77
4.7873063565604914  -8.5861744331901093 73.7440271588439344 0.0000000000000000 6.0000000000000000 78
4.8484865308004226  -8.5874886928718031 73.7657176802044603 0.0000000000000000 6.0000000000000000 79
4.9096698367861409  -8.5887494106397284 73.7865259354745433 0.0000000000000000 6.0000000000000000 80
4.9708562594786319  -8.5899586597564106 73.8064858837859674 0.0000000000000000 6.0000000000000000 81
5.0320457801398142  -8.5911184368126534 73.8256302583754689 0.0000000000000000 6.0000000000000000 82
5.0932383765279043  -8.5922306650731244 73.8439906160174928 0.0000000000000000 6.0000000000000000 83
5.1544340231032564  -8.5932971975174581 73.8615973822703040 0.0000000000000000 6.0000000000000000 84
5.2156326912409909  -8.5943198196249373 73.8784798932065030 0.0000000000000000 6.0000000000000000 85
5.2768343494472836  -8.5953002519429020 73.8946664341870587 0.0000000000000000 6.0000000000000000 86
5.3380389635766798  -8.5962401524723351 73.9101842761421466 0.0000000000000000 6.0000000000000000 87
5.3992464970482512  -8.5971411188984526 73.9250597097422997 0.0000000000000000 6.0000000000000000 88
5.4604569110587429  -8.5980046906893541 73.9393180777753543 0.0000000000000000 6.0000000000000000 89
5.5216701647912432  -8.5988323510818070 73.9529838059890920 0.0000000000000000 6.0000000000000000 90
5.5828862156181636  -8.5996255289698897 73.9660804326108803 0.0000000000000000 6.0000000000000000 91
5.6441050192975650  -8.6003856007094015 73.9786306367173552 0.0000000000000000 6.0000000000000000 92
5.7053265301621057  -8.6011138918485663 73.9906562655933442 0.0000000000000000 6.0000000000000000 93
5.7665507013000461  -8.6018116787937249 74.0021783611931028 0.0000000000000000 6.0000000000000000 94
5.8277774847279273  -8.6024801904169212 74.0132171857932661 0.0000000000000000 6.0000000000000000 95
5.8890068315546520  -8.6031206096110910 74.0237922469095651 0.0000000000000000 6.0000000000000000 96
5.9502386921368400  -8.6037340747974316 74.0339223215341633 0.0000000000000000 6.0000000000000000 97
6.0114730162253975  -8.6043216813885550 74.0436254797375710 0.0000000000000000 6.0000000000000000 98
6.0727097531033545  -8.6048844832103946 74.0529191076701636 0.0000000000000000 6.0000000000000000 99
6.1339488517150578  -8.6054234938851586 74.0618199299899374 0.0000000000000000 6.0000000000000000 100
6.1951902607868776  -8.6059396881772479 74.0703440317372639 0.0000000000000000 6.0000000000000000 101
6.2564339289396633  -8.6064340033035087 74.0785068796721902 0.0000000000000000 6.0000000000000000 102
6.3176798047931362  -8.6069073402090854 74.0863233430864199 0.0000000000000000 6.0000000000000000 103
6.3789278370625278  -8.6073605648097740 74.0938077140995688 0.0000000000000000 6.0000000000000000 104
6.4401779746477406  -8.6077945092016517 74.1009737274462736 0.0000000000000000 6.0000000000000000 105
6.5014301667153216  -8.6082099728385622 74.1078345797604783 0.0000000000000000 6.0000000000000000 106
6.5626843627735818  -8.6086077236780785 74.1144029483615299 0.0000000000000000 6.0000000000000000 107
6.6239405127411830  -8.6089884992962897 74.1206910095460927 0.0000000000000000 6.0000000000000000 108
6.6851985670094738  -8.6093530079719258 74.1267104563901569 0.0000000000000000 6.0000000000000000 109
6.7464584764989608  -8.6097019297401509 74.1324725160649507 0.0000000000000000 6.0000000000000000 110
6.8077201927101880  -8.6100359174163827 74.1379879666706358 0.0000000000000000 6.0000000000000000 111
6.8689836677693350  -8.6103555975905799 74.1432671535924328 0.0000000000000000 6.0000000000000000 112
6.9302488544688847  -8.6106615715922938 74.1483200053833826 0.0000000000000000 6.0000000000000000 113
6.9915157063036162  -8.6109544164269067 74.1531560491792732 0.0000000000000000 6.0000000000000000 114
7.0527841775022209  -8.6112346856834705 74.1577844256507461 0.0000000000000000 6.0000000000000000 115
7.1140542230548505  -8.6115029104145222 74.1622139034990511 0.0000000000000000 6.0000000000000000 116
7.1753257987368295  -8.6117595999883711 74.1664528935013578 0.0000000000000000 6.0000000000000000 117
7.2365988611288063  -8.6120052429142646 74.1705094621129035 0.0000000000000000 6.0000000000000000 118
7.2978733676336089  -8.6122403076409206 74.1743913446328520 0.0000000000000000 6.0000000000000000 119
7.3591492764900091  -8.6124652433289786 74.1781059579420372 0.0000000000000000 6.0000000000000000 120
7.4204265467836352  -8.6126804805977457 74.1816604128196957 0.0000000000000000 6.0000000000000000 121
7.4817051384552640  -8.6128864322469543 74.1850615258487949 0.0000000000000000 6.0000000000000000 122
7.5429850123066640  -8.6130834939538872 74.1883158309174462 0.0000000000000000 6.0000000000000000 123
7.6042661300042038  -8.6132720449465552 74.1914295903256118 0.0000000000000000 6.0000000000000000 124
7.6655484540804064  -8.6134524486534101 74.1944088055066828 0.0000000000000000 6.0000000000000000 125
7.7268319479336105  -8.6136250533302263 74.1972592273722000 0.0000000000000000 6.0000000000000000 126
7.7881165758259066  -8.6137901926646592 74.1999863662898349 0.0000000000000000 6.0000000000000000 127
7.8494023028794988  -8.6139481863591278 74.2025955017038257 0.0000000000000000 6.0000000000000000 128
7.9106890950716435  -8.6140993406925706 74.2050916914071621 0.0000000000000000 6.0000000000000000 129
7.9719769192282843  -8.6142439490616276 74.2074797804754667 0.0000000000000000 6.0000000000000000 130
8.0332657430165071  -8.6143822925019400 74.2097644098718092 0.0000000000000000 6.0000000000000000 131
8.0945555349359672  -8.6145146401899844 74.2119500247318911 0.0000000000000000 6.0000000000000000 132
8.1558462643093428  -8.6146412499261995 74.2140408823395035 0.0000000000000000 6.0000000000000000 133
8.2171379012719594  -8.6147623685998145 74.2160410598010856 0.0000000000000000 6.0000000000000000 134
8.2784304167606777  -8.6148782326360518 74.2179544614290450 0.0000000000000000 6.0000000000000000 135
8.3397237825020909  -8.6149890684262367 74.2197848258430071 0.0000000000000000 6.0000000000000000 136
8.4010179710001882  -8.6150950927413312 74.2215357327978609 0.0000000000000000 6.0000000000000000 137
8.4623129555234868  -8.6151965131294723 74.2232106097475395 0.0000000000000000 6.0000000000000000 138
8.5236087100917430  -8.6152935282980412 74.2248127381536875 0.0000000000000000 6.0000000000000000 139
8.5849052094623008  -8.6153863284807617 74.2263452595470596 0.0000000000000000 6.0000000000000000 140
8.6462024291161530  -8.6154750957903605 74.2278111813509156 0.0000000000000000 6.0000000000000000 141
8.7075003452437212  -8.6155600045572989 74.2292133824741427 0.0000000000000000 6.0000000000000000 142
8.7687989347304764  -8.6156412216550269 74.2305546186821203 0.0000000000000000 6.0000000000000000 143
8.8300981751423802  -8.6157189068122868 74.2318375277535694 0.0000000000000000 6.0000000000000000 144
8.8913980447112522  -8.6157932129128731 74.2330646344307326 0.0000000000000000 6.0000000000000000 145
8.9526985223200359  -8.6158642862833723 74.2342383551706035 0.0000000000000000 6.0000000000000000 146
9.0139995874880832  -8.6159322669692422 74.2353610027040531 0.0000000000000000 6.0000000000000000 147
9.0753012203563852  -8.6159972889997540 74.2364347904106552 0.0000000000000000 6.0000000000000000 148
9.1366034016728932  -8.6160594806420967 74.2374618365151662 0.0000000000000000 6.0000000000000000 149
9.1979061127778667  -8.6161189646451781 74.2384441681131619 0.0000000000000000 6.0000000000000000 150
9.2592093355893272  -8.6161758584733903 74.2393837250316864 0.0000000000000000 6.0000000000000000 151
9.3205130525885949  -8.6162302745308388 74.2402823635316622 0.0000000000000000 6.0000000000000000 152
9.3818172468060066  -8.6162823203762748 74.2411418598576915 0.0000000000000000 6.0000000000000000 153
9.4431219018067232  -8.6163320989292060 74.2419639136413849 0.0000000000000000 6.0000000000000000 154
9.5044270016767332  -8.6163797086674485 74.2427501511638752 0.0000000000000000 6.0000000000000000 155
9.5657325310090400  -8.6164252438165043 74.2435021284829588 0.0000000000000000 6.0000000000000000 156
9.6270384748900195  -8.6164687945310412 74.2442213344302502 0.0000000000000000 6.0000000000000000 157
9.6883448188859891  -8.6165104470688245 74.2449091934833518 0.0000000000000000 6.0000000000000000 158
9.7496515490300073  -8.6165502839573627 74.2455670685179570 0.0000000000000000 6.0000000000000000 159
9.8109586518088516  -8.6165883841536193 74.2461962634450856 0.0000000000000000 6.0000000000000000 160
9.8722661141502694  -8.6166248231969718 74.2467980257373199 0.0000000000000000 6.0000000000000000 161
9.9335739234104405  -8.6166596733557910 74.2473735488492679 0.0000000000000000 6.0000000000000000 162
9.9948820673616741  -8.6166930037678267 74.2479239745359223 0.0000000000000000 6.0000000000000000 163
10.0561905341803559  -8.6167248805746777 74.2484503950732915 0.0000000000000000 6.0000000000000000 164
10.1174993124351555  -8.6167553670505903 74.2489538553854658 0.0000000000000000 6.0000000000000000 165
10.1788083910754477  -8.6167845237258049 74.2494353550814736 0.0000000000000000 6.0000000000000000 166
10.2401177594200181  -8.6168124085046802 74.2498958504060340 0.0000000000000000 6.0000000000000000 167
10.3014274071460097  -8.6168390767787955 74.2503362561073743 0.0000000000000000 6.0000000000000000 168
10.3627373242781005  -8.6168645815352747 74.2507574472261069 0.0000000000000000 6.0000000000000000 169
10.4240475011779683  -8.6168889734604797 74.2511602608075663 0.0000000000000000 6.0000000000000000 170
10.4853579285339826  -8.6169123010393012 74.2515454975415565 0.0000000000000000 6.0000000000000000 171
10.5466685973511360  -8.6169346106502154 74.2519139233321255 0.0000000000000000 6.0000000000000000 172
10.6079794989412619  -8.6169559466562724 74.2522662708002201 0.0000000000000000 6.0000000000000000 173
10.6692906249134616  -8.6169763514922213 74.2526032407224079 0.0000000000000000 6.0000000000000000 174
10.7306019671647839  -8.6169958657478958 74.2529255034079085 0.0000000000000000 6.0000000000000000 175
10.7919135178711638  -8.6170145282480242 74.2532337000166081 0.0000000000000000 6.0000000000000000 176
10.8532252694785729  -8.6170323761286305 74.2535284438208691 0.0000000000000000 6.0000000000000000 177
10.9145372146944286  -8.6170494449101476 74.2538103214128853 0.0000000000000000 6.0000000000000000 178
10.9758493464792011  -8.6170657685674357 74.2540798938606486 0.0000000000000000 6.0000000000000000 179
11.0371616580383076  -8.6170813795967067 74.2543376978137672 0.0000000000000000 6.0000000000000000 180
11.0984741428141671  -8.6170963090796633 74.2545842465622457 0.0000000000000000 6.0000000000000000 181
11.1597867944785047  -8.6171105867448290 74.2548200310493343 0.0000000000000000 6.0000000000000000 182
11.2210996069248914  -8.6171242410262501 74.2550455208410369 0.0000000000000000 6.0000000000000000 183
11.2824125742614534  -8.6171372991196709 74.2552611650537955 0.0000000000000000 6.0000000000000000 184
11.3437256908038275  -8.6171497870362739 74.2554673932419718 0.0000000000000000 6.0000000000000000 185
11.4050389510683114  -8.6171617296541267 74.2556646162473442 0.0000000000000000 6.0000000000000000 186
11.4663523497651969  -8.6171731507673925 74.2558532270119542 0.0000000000000000 6.0000000000000000 187
11.5276658817923181  -8.6171840731334228 74.2560336013556395 0.0000000000000000 6.0000000000000000 188
11.5889795422287936  -8.6171945185178043 74.2562060987200141 0.0000000000000000 6.0000000000000000 189
11.6502933263289403  -8.6172045077374655 74.2563710628804330 0.0000000000000000 6.0000000000000000 190
11.7116072295163747  -8.6172140607019401 74.2565288226272173 0.0000000000000000 6.0000000000000000 191
11.7729212473783136  -8.6172231964528017 74.2566796924171086 0.0000000000000000 6.0000000000000000 192
11.8342353756600218  -8.6172319332014204 74.2568239729967132 0.0000000000000000 6.0000000000000000 193
11.8955496102594420  -8.6172402883650996 74.2569619519991022 0.0000000000000000 6.0000000000000000 194
11.9568639472219864  -8.6172482786016076 74.2570939045143206 0.0000000000000000 6.0000000000000000 195
12.0181783827355151  -8.6172559198422380 74.2572200936352402 0.0000000000000000 6.0000000000000000 196
