 # inv_tmp, energy, phys_var, phys_doublon, phys_num, step_i
0.0165533454882913  7.1785019279239446 95.7527001506525721 1.9750356229810935 8.0000000000000000 1
0.0329083467408674  6.4502900890922144 85.1251599753650652 1.9380554963800241 8.0000000000000000 2
0.0490752256323866  5.7387180051930820 75.5714702297229763 1.9019132576742188 8.0000000000000000 3
0.0650651240964971  5.0462653981060024 67.0762298010424445 1.8667342465162777 8.0000000000000000 4
0.0808896992218611  4.3748648320178880 59.6076899529354591 1.8326201546192733 8.0000000000000000 5
0.0965607661728512  3.7259239376882993 53.1209912299500360 1.7996501379982075 7.9999999999999982 6
0.1120900022341012  3.1003682669142458 47.5614333842162864 1.7678825794466357 8.0000000000000000 7
0.1274887172927100  2.4986980827133944 42.8675610278375814 1.7373572617255464 8.0000000000000000 8
0.1427676894844474  1.9210526905609535 38.9739148463365837 1.7080977392838061 8.0000000000000000 9
0.1579370599679557  1.3672767869817526 35.8133632907367314 1.6801137358621421 8.0000000000000000 10
0.1730062778895317  0.8369844818724919 33.3189850730224038 1.6534034390882937 8.0000000000000000 11
0.1879840853306197  0.3296179153162987 31.4255147886203545 1.6279556052835717 8.0000000000000000 12
0.2028785320240457  -0.1555014254461201 30.0703920072594961 1.6037514245110223 8.0000000000000000 13
0.2176970104843537  -0.6191295769420573 29.1944697352058355 1.5807661256276313 8.0000000000000018 14
0.2324463035597692  -1.0620652622512852 28.7424438509214859 1.5589703233708885 7.9999999999999991 15
0.2471326379870262  -1.4851228904856808 28.6630638149843158 1.5383311248190235 7.9999999999999991 16
0.2617617391052454  -1.8891125808488318 28.9091792724844652 1.5188130219035996 7.9999999999999991 17
0.2763388833257917  -2.2748262087950133 29.4376692211383428 1.5003786012027285 8.0000000000000036 18
0.2908689461872682  -2.6430284088653573 30.2092917603247884 1.4829891031845062 8.0000000000000000 19
0.3053564448195402  -2.9944514963135731 31.1884840878597736 1.4666048614789835 8.0000000000000000 20
0.3198055743997690  -3.3297933559420096 32.3431349657825606 1.4511856495501312 7.9999999999999991 21
0.3342202387275485  -3.6497174662967145 33.6443456083594938 1.4366909580585867 7.9999999999999982 22
0.3486040754060206  -3.9548543614230955 35.0661899130482908 1.4230802218209035 8.0000000000000000 23
0.3629604763255843  -4.2458039672144388 36.5854810830530042 1.4103130109941175 7.9999999999999991 24
0.3772926042403803  -4.5231383760283057 38.1815488317129308 1.3983491972217650 8.0000000000000018 25
0.3916034062361187  -4.7874047363275656 39.8360293392305991 1.3871491021317974 8.0000000000000000 26
0.4058956248378324  -5.0391280309430115 41.5326687751328691 1.3766736328511584 7.9999999999999982 27
0.4201718074198943  -5.2788135974029897 43.2571403443839699 1.3668844071012476 8.0000000000000000 28
0.4344343144755944  -5.5069493071968747 44.9968743231894379 1.3577438689210359 8.0000000000000000 29
0.4486853271928327  -5.7240073692305939 46.7409003097229530 1.3492153950580164 8.0000000000000036 30
0.4629268546753560  -5.9304457579582763 48.4797008375507659 1.3412633914837362 7.9999999999999982 31
0.4771607410515278  -6.1267092907979714 50.2050755199463055 1.3338533792384617 7.9999999999999982 32
0.4913886726283893  -6.3132303945317965 51.9100149649185241 1.3269520688002481 7.9999999999999982 33
0.5056121851792414  -6.4904296084038053 53.5885837921665811 1.3205274223286074 8.0000000000000000 34
0.5198326713982341  -6.6587158743131720 55.2358121745782000 1.3145487033852783 8.0000000000000000 35
0.5340513885145339  -6.8184866633682653 56.8475954072490026 1.3089865140313206 8.0000000000000000 36
0.5482694660300459  -6.9701279843745532 58.4206010713250521 1.3038128195007945 8.0000000000000000 37
0.5624879135264941  -7.1140143145854005 59.9521834073028117 1.2990009609288879 7.9999999999999982 38
0.5767076284780152  -7.2505084870287142 61.4403045442239844 1.2945256568488637 8.0000000000000018 39
0.5909294040023795  -7.3799615625115704 62.8834622502184004 1.2903629943584947 8.0000000000000000 40
0.6051539364858260  -7.5027127084062162 64.2806238792832971 1.2864904109899769 7.9999999999999991 41
0.6193818330217996  -7.6190891007995463 65.6311661921841676 1.2828866683994333 7.9999999999999982 42
0.6336136186113449  -7.7294058617005987 66.9348207287080186 1.2795318190280263 8.0000000000000000 43
0.6478497430815775  -7.8339660388180716 68.1916244064590842 1.2764071668829136 8.0000000000000000 44
0.6620905876877173  -7.9330606319531842 69.4018750196742928 1.2734952235503385 7.9999999999999991 45
0.6763364713730899  -8.0269686672710883 70.5660913113315473 1.2707796604923427 8.0000000000000018 46
0.6905876566698732  -8.1159573185588023 71.6849772938527110 1.2682452586000879 8.0000000000000000 47
0.7048443552309452  -8.2002820729764991 72.7593904983006610 1.2658778558866683 7.9999999999999991 48
0.7191067329898267  -8.2801869376828883 73.7903138391891957 1.2636642941059790 7.9999999999999982 49
0.7333749149513548  -8.3559046829861217 74.7788307917034558 1.2615923649860274 8.0000000000000018 50
0.7476489896203932  -8.4276571172641805 75.7261035899676784 1.2596507566684465 7.9999999999999982 51
0.7619290130795993  -8.4956553887455719 76.6333541686199169 1.2578290008534636 8.0000000000000000 52
0.7762150127301480  -8.5601003092824932 77.5018475849426522 1.2561174210629691 8.0000000000000000 53
0.7905069907114026  -8.6211826954336441 78.3328776747505060 1.2545070823549032 7.9999999999999982 54
0.8048049270169683  -8.6790837224593602 79.1277547117539370 1.2529897427504155 7.9999999999999991 55
0.8191087823254308  -8.7339752871829841 79.8877948568589602 1.2515578065715558 8.0000000000000018 56
0.8334185005644815  -8.7860203760617512 80.6143112005243268 1.2502042798314481 8.0000000000000000 57
0.8477340112271473  -8.8353734352156472 81.3086062176255808 1.2489227277707320 8.0000000000000000 58
0.8620552314585556  -8.8821807395678292 81.9719654700717655 1.2477072345930127 8.0000000000000018 59
0.8763820679311414  -8.9265807586430146 82.6056524075302150 1.2465523654176607 8.0000000000000000 60
0.8907144185255044  -8.9687045169424273 83.2109041309253712 1.2454531304398400 7.9999999999999982 61
0.9050521738333062  -9.0086759471598015 83.7889279968140954 1.2444049512645381 8.0000000000000036 62
0.9193952184976886  -9.0466122348196336 84.3408989532615152 1.2434036293629802 8.0000000000000000 63
0.9337434324057446  -9.0826241532047121 84.8679575094296013 1.2424453165855247 8.0000000000000000 64
0.9480966917466049  -9.1168163876946942 85.3712082517491808 1.2415264876543757 8.0000000000000000 65
0.9624548699477267  -9.1492878488621923 85.8517188292983207 1.2406439145517236 8.0000000000000000 66
0.9768178385010263  -9.1801319738687592 86.3105193398864685 1.2397946427137250 7.9999999999999982 67
0.9911854676895701  -9.2094370158723020 86.7486020563888758 1.2389759689376592 8.0000000000000000 68
1.0055576272246640  -9.2372863213017116 87.1669214401348995 1.2381854209082543 7.9999999999999982 69
1.0199341868023379  -9.2637585949766930 87.5663943946834138 1.2374207382492695 8.0000000000000018 70
1.0343150165874426  -9.2889281531523835 87.9479007191657729 1.2366798550076030 7.9999999999999982 71
1.0486999876328338  -9.3128651646524538 88.3122837256034074 1.2359608834793214 8.0000000000000000 72
1.0630889722404469  -9.3356358803222239 88.6603509892557042 1.2352620992897350 7.9999999999999982 73
1.0774818442704144  -9.3573028510878800 88.9928752051885397 1.2345819276429633 8.0000000000000018 74
1.0918784794038137  -9.3779251349498658 89.3105951279087122 1.2339189306600258 8.0000000000000000 75
1.1062787553640885  -9.3975584932706546 89.6142165741435122 1.2332717957283945 7.9999999999999982 76
1.1206825521016957  -9.4162555767401415 89.9044134716912993 1.2326393247899268 8.0000000000000018 77
1.1350897519460870  -9.4340661014174270 90.1818289397721742 1.2320204244981650 8.0000000000000018 78
1.1495002397287235  -9.4510370152573913 90.4470763885058773 1.2314140971800673 8.0000000000000000 79
1.1639139028804533  -9.4672126555341656 90.7007406270627428 1.2308194325411952 8.0000000000000000 80
1.1783306315062412  -9.4826348975736874 90.9433789717130310 1.2302356000573169 8.0000000000000018 81
1.1927503184399417  -9.4973432952035335 91.1755223464608946 1.2296618419991481 8.0000000000000000 82
1.2071728592815227  -9.5113752133218128 91.3976763702190169 1.2290974670405963 8.0000000000000000 83
1.2215981524189052  -9.5247659529777469 91.6103224255792981 1.2285418444043161 8.0000000000000018 84
1.2360260990363547  -9.5375488693462032 91.8139187051883425 1.2279943985017152 8.0000000000000000 85
1.2504566031111548  -9.5497554829662938 92.0089012325550755 1.2274546040276535 7.9999999999999991 86
1.2648895714001196  -9.5614155846012441 92.1956848548223036 1.2269219814730099 7.9999999999999982 87
1.2793249134173221  -9.5725573340632071 92.3746642056396752 1.2263960930210933 7.9999999999999991 88
1.2937625414042835  -9.5832073533325435 92.5462146367882781 1.2258765387964266 8.0000000000000000 89
1.3082023702937176  -9.5933908142869484 92.7106931176468265 1.2253629534368895 7.9999999999999982 90
1.3226443176678198  -9.6031315213415080 92.8684391019592965 1.2248550029624483 8.0000000000000018 91
1.3370883037119705  -9.6124519892864591 93.0197753616746468 1.2243523819158026 7.9999999999999982 92
1.3515342511646298  -9.6213735165957157 93.1650087878927593 1.2238548107522607 8.0000000000000000 93
1.3659820852641160  -9.6299162544651811 93.3044311591635989 1.2233620334579287 8.0000000000000000 94
1.3804317336928749  -9.6380992718268885 93.4383198775681905 1.2228738153770204 8.0000000000000000 95
1.3948831265197819  -9.6459406165718597 93.5669386731532597 1.2223899412306203 8.0000000000000000 96
1.4093361961409561  -9.6534573732021673 93.6905382774085638 1.2219102133106838 8.0000000000000000 97
1.4237908772195014  -9.6606657171208088 93.8093570665687793 1.2214344498343848 8.0000000000000000 98
1.4382471066245504  -9.6675809657562848 93.9236216755918747 1.2209624834451387 7.9999999999999991 99
1.4527048233699291  -9.6742176267079980 94.0335475837206758 1.2204941598477663 8.0000000000000000 100
1.4671639685527307  -9.6805894430878858 94.1393396725710687 1.2200293365662920 8.0000000000000000 101
1.4816244852920406  -9.6867094362239037 94.2411927577166750 1.2195678818138385 8.0000000000000000 102
1.4960863186680293  -9.6925899458812488 94.3392920947531053 1.2191096734649505 8.0000000000000000 103
1.5105494156615948  -9.6982426681483691 94.4338138608307105 1.2186545981214922 8.0000000000000000 104
1.5250137250947153  -9.7036786911260968 94.5249256126417947 1.2182025502640084 8.0000000000000000 105
1.5394791975716478  -9.7089085285502748 94.6127867218397967 1.2177534314811167 8.0000000000000000 106
1.5539457854210810  -9.7139421514704090 94.6975487888536236 1.2173071497701329 7.9999999999999973 107
1.5684134426393483  -9.7187890180998213 94.7793560360423442 1.2168636189026969 8.0000000000000000 108
1.5828821248347682  -9.7234581019457007 94.8583456811132351 1.2164227578497000 8.0000000000000000 109
1.5973517891731874  -9.7279579183212803 94.9346482917034962 1.2159844902603045 8.0000000000000018 110
1.6118223943247707  -9.7322965493359348 95.0083881219974131 1.2155487439902732 7.9999999999999991 111
1.6262939004120796  -9.7364816674535977 95.0796834322252806 1.2151154506752559 8.0000000000000000 112
1.6407662689594740  -9.7405205577041638 95.1486467918596617 1.2146845453450263 8.0000000000000000 113
1.6552394628438518  -9.7444201386277296 95.2153853672967330 1.2142559660750352 8.0000000000000018 114
1.6697134462467411  -9.7481869820265530 95.2800011947794587 1.2138296536719295 7.9999999999999982 115
1.6841881846077540  -9.7518273315951483 95.3425914392897056 1.2134055513899966 7.9999999999999991 116
1.6986636445794006  -9.7553471204947328 95.4032486401070798 1.2129836046757370 8.0000000000000018 117
1.7131397939832560  -9.7587519879341809 95.4620609437020420 1.2125637609380269 8.0000000000000018 118
1.7276166017674732  -9.7620472948160231 95.5191123246027871 1.2121459693415400 8.0000000000000000 119
1.7420940379656293  -9.7652381385022977 95.5744827948458919 1.2117301806213017 8.0000000000000000 120
1.7565720736568833  -9.7683293667519564 95.6282486025934020 1.2113163469164361 8.0000000000000018 121
1.7710506809274320  -9.7713255908783125 95.6804824204729982 1.2109044216213356 7.9999999999999991 122
1.7855298328332370  -9.7742311981721066 95.7312535241700431 1.2104943592526367 8.0000000000000000 123
1.8000095033640007  -9.7770503636330304 95.7806279617757781 1.2100861153305178 7.9999999999999982 124
1.8144896674083653  -9.7797870610500048 95.8286687143725544 1.2096796462729871 8.0000000000000018 125
1.8289703007203075  -9.7824450734679882 95.8754358483109286 1.2092749093019148 8.0000000000000018 126
1.8434513798867007  -9.7850280030770040 95.9209866596139307 1.2088718623597106 8.0000000000000018 127
1.8579328822960144  -9.7875392805566861 95.9653758109193546 1.2084704640356014 8.0000000000000000 128
1.8724147861081242  -9.7899821739078909 96.0086554613519212 1.2080706735006039 7.9999999999999982 129
1.8868970702251981  -9.7923597968008984 96.0508753896966425 1.2076724504503253 8.0000000000000000 130
1.9013797142636337  -9.7946751164679267 96.0920831112250085 1.2072757550548274 7.9999999999999973 131
1.9158626985270100  -9.7969309611662254 96.1323239885097109 1.2068805479148601 8.0000000000000000 132
1.9303460039800306  -9.7991300272361617 96.1716413365424501 1.2064867900238041 8.0000000000000000 133
1.9448296122234223  -9.8012748857775556 96.2100765224577117 1.2060944427347664 8.0000000000000000 134
1.9593135054697592  -9.8033679889659133 96.2476690601447160 1.2057034677322815 8.0000000000000000 135
1.9737976665201884  -9.8054116760290189 96.2844567000189784 1.2053138270081414 8.0000000000000000 136
1.9882820787420228  -9.8074081789031631 96.3204755142079847 1.2049254828409297 8.0000000000000036 137
2.0027667260471729  -9.8093596275870691 96.3557599773926796 1.2045383977788413 7.9999999999999982 138
2.0172515928713923  -9.8112680552106042 96.3903430435350828 1.2041525346254589 7.9999999999999982 139
2.0317366641543058  -9.8131354028342166 96.4242562187071428 1.2037678564281262 7.9999999999999982 140
2.0462219253201948  -9.8149635239942867 96.4575296302273841 1.2033843264686503 8.0000000000000000 141
2.0607073622595165  -9.8167541890085595 96.4901920922995089 1.2030019082560512 8.0000000000000000 142
2.0751929613111231  -9.8185090890550057 96.5222711683364594 1.2026205655211242 8.0000000000000000 143
2.0896787092451650  -9.8202298400367702 96.5537932301443220 1.2022402622125874 8.0000000000000000 144
2.1041645932466477  -9.8219179862449764 96.5847835141309758 1.2018609624946290 8.0000000000000018 145
2.1186506008996226  -9.8235750038306673 96.6152661746948382 1.2014826307456663 8.0000000000000000 146
2.1331367201719824  -9.8252023040963277 96.6452643349422544 1.2011052315581614 8.0000000000000018 147
2.1476229394008506  -9.8268012366169089 96.6748001348717310 1.2007287297393443 8.0000000000000000 148
2.1621092472785266  -9.8283730921997581 96.7038947771588084 1.2003530903127226 8.0000000000000000 149
2.1765956328389837  -9.8299191056921735 96.7325685706649097 1.1999782785202484 8.0000000000000000 150
2.1910820854448825  -9.8314404586449644 96.7608409717899178 1.1996042598250498 7.9999999999999982 151
2.2055685947750967  -9.8329382818397768 96.7887306237795428 1.1992309999146258 8.0000000000000000 152
2.2200551508127169  -9.8344136576875805 96.8162553940933606 1.1988584647044225 7.9999999999999982 153
2.2345417438335251  -9.8358676225053241 96.8434324099349766 1.1984866203417226 7.9999999999999982 154
2.2490283643949192  -9.8373011686772216 96.8702780920373812 1.1981154332097679 8.0000000000000000 155
2.2635150033252645  -9.8387152467069363 96.8968081867947575 1.1977448699320701 7.9999999999999982 156
2.2780016517136663  -9.8401107671665020 96.9230377968254118 1.1973748973768539 8.0000000000000000 157
2.2924883009001409  -9.8414886025474111 96.9489814100455476 1.1970054826615770 7.9999999999999982 158
2.3069749424661667  -9.8428495890191670 96.9746529273312490 1.1966365931575025 8.0000000000000018 159
2.3214615682256143  -9.8441945281001413 97.0000656888395270 1.1962681964942723 8.0000000000000018 160
2.3359481702160201  -9.8455241882454185 97.0252324990580490 1.1959002605644673 8.0000000000000018 161
2.3504347406902117  -9.8468393063559390 97.0501656506466759 1.1955327535281088 7.9999999999999991 162
2.3649212721082580  -9.8481405892131466 97.0748769471334327 1.1951656438170970 8.0000000000000000 163
2.3794077571297363  -9.8494287148429720 97.0993777245217728 1.1947989001395483 7.9999999999999991 164
2.3938941886062999  -9.8507043338129030 97.1236788718648398 1.1944324914840327 7.9999999999999991 165
2.4083805595745438  -9.8519680704655617 97.1477908508581010 1.1940663871236827 8.0000000000000000 166
2.4228668632491468  -9.8532205240921336 97.1717237145000752 1.1937005566201697 8.0000000000000000 167
2.4373530930162852  -9.8544622700487228 97.1954871248674976 1.1933349698275353 7.9999999999999982 168
2.4518392424273054  -9.8556938608186080 97.2190903700495141 1.1929695968958751 8.0000000000000018 169
2.4663253051926484  -9.8569158270231050 97.2425423802819466 1.1926044082748546 7.9999999999999982 170
2.4808112751760119  -9.8581286783837960 97.2658517433229406 1.1922393747170767 8.0000000000000018 171
2.4952971463887423  -9.8593329046384639 97.2890267191055358 1.1918744672812727 8.0000000000000000 172
2.5097829129844542  -9.8605289764131907 97.3120752537047338 1.1915096573353323 8.0000000000000000 173
2.5242685692538545  -9.8617173460528100 97.3350049926518466 1.1911449165591641 8.0000000000000000 174
2.5387541096197812  -9.8628984484117961 97.3578232936282006 1.1907802169473896 8.0000000000000018 175
2.5532395286324325  -9.8640727016076077 97.3805372385691186 1.1904155308118667 8.0000000000000000 176
2.5677248209647878  -9.8652405077384060 97.4031536452067712 1.1900508307840560 8.0000000000000000 177
2.5822099814082127  -9.8664022535668359 97.4256790780789572 1.1896860898172148 8.0000000000000000 178
2.5966950048682382  -9.8675583111716634 97.4481198590302142 1.1893212811884388 8.0000000000000000 179
2.6111798863605067  -9.8687090385688432 97.4704820772298177 1.1889563785005435 7.9999999999999982 180
2.6256646210068868  -9.8698547803034593 97.4927715987296324 1.1885913556837933 8.0000000000000018 181
2.6401492040317347  -9.8709958680140950 97.5149940755843687 1.1882261869974815 8.0000000000000000 182
2.6546336307583154  -9.8721326209709215 97.5371549545555183 1.1878608470313661 7.9999999999999982 183
2.6691178966053619  -9.8732653465888021 97.5592594854182380 1.1874953107069652 8.0000000000000000 184
2.6836019970837763  -9.8743943409166341 97.5813127288905946 1.1871295532787147 8.0000000000000000 185
2.6980859277934659  -9.8755198891041296 97.6033195642033320 1.1867635503349967 8.0000000000000000 186
2.7125696844203038  -9.8766422658470940 97.6252846963270429 1.1863972777990432 8.0000000000000018 187
2.7270532627332185  -9.8777617358122285 97.6472126628727892 1.1860307119297135 8.0000000000000000 188
2.7415366585813974  -9.8788785540425152 97.6691078406821447 1.1856638293221606 7.9999999999999991 189
2.7560198678916121  -9.8799929663440711 97.6909744521209547 1.1852966069083828 7.9999999999999982 190
2.7705028866656476  -9.8811052096553382 97.7128165710904995 1.1849290219576685 7.9999999999999991 191
2.7849857109778413  -9.8822155123995490 97.7346381287702002 1.1845610520769423 7.9999999999999982 192
2.7994683369727236  -9.8833240948211554 97.7564429191033639 1.1841926752110097 8.0000000000000000 193
2.8139507608627561  -9.8844311693070814 97.7782346040387438 1.1838238696427124 8.0000000000000018 194
2.8284329789261697  -9.8855369406934486 97.8000167185389557 1.1834546139929953 8.0000000000000000 195
2.8429149875048858  -9.8866416065585341 97.8217926753666802 1.1830848872208928 7.9999999999999991 196
