 # inv_tmp, energy, phys_var, phys_doublon, phys_num, step_i
0.015517  7.110397 97.445535 1.956654 8.000000 1
0.030861  6.385397 87.201504 1.920040 8.000000 2
0.046038  5.672432 77.912553 1.883935 8.000000 3
0.061057  4.974760 69.587964 1.848510 8.000000 4
0.075927  4.295127 62.218998 1.813913 8.000000 5
0.090659  3.635741 55.781128 1.780268 8.000000 6
0.105262  2.998280 50.236730 1.747676 8.000000 7
0.119746  2.383916 45.537992 1.716214 8.000000 8
0.134122  1.793369 41.629771 1.685943 8.000000 9
0.148398  1.226962 38.452259 1.656900 8.000000 10
0.162583  0.684691 35.943315 1.629112 8.000000 11
0.176687  0.166281 34.040402 1.602590 8.000000 12
0.190715  -0.328746 32.682130 1.577334 8.000000 13
0.204677  -0.801021 31.809401 1.553337 8.000000 14
0.218577  -1.251281 31.366218 1.530583 8.000000 15
0.232422  -1.680330 31.300195 1.509051 8.000000 16
0.246218  -2.089007 31.562836 1.488714 8.000000 17
0.259969  -2.478167 32.109636 1.469544 8.000000 18
0.273679  -2.848658 32.900038 1.451505 8.000000 19
0.287354  -3.201311 33.897309 1.434562 8.000000 20
0.300996  -3.536931 35.068347 1.418676 8.000000 21
0.314609  -3.856294 36.383451 1.403808 8.000000 22
0.328196  -4.160142 37.816086 1.389915 8.000000 23
0.341761  -4.449181 39.342624 1.376955 8.000000 24
0.355305  -4.724084 40.942111 1.364885 8.000000 25
0.368832  -4.985492 42.596023 1.353659 8.000000 26
0.382344  -5.234014 44.288057 1.343236 8.000000 27
0.395843  -5.470230 46.003916 1.333570 8.000000 28
0.409331  -5.694693 47.731128 1.324618 8.000000 29
0.422809  -5.907931 49.458865 1.316338 8.000000 30
0.436280  -6.110448 51.177787 1.308688 8.000000 31
0.449745  -6.302729 52.879891 1.301628 8.000000 32
0.463206  -6.485237 54.558381 1.295119 8.000000 33
0.476663  -6.658417 56.207540 1.289122 8.000000 34
0.490118  -6.822698 57.822622 1.283602 8.000000 35
0.503572  -6.978493 59.399743 1.278524 8.000000 36
0.517026  -7.126197 60.935789 1.273856 8.000000 37
0.530481  -7.266193 62.428328 1.269566 8.000000 38
0.543937  -7.398848 63.875533 1.265625 8.000000 39
0.557396  -7.524518 65.276106 1.262006 8.000000 40
0.570858  -7.643543 66.629211 1.258682 8.000000 41
0.584322  -7.756252 67.934419 1.255631 8.000000 42
0.597791  -7.862959 69.191647 1.252829 8.000000 43
0.611264  -7.963967 70.401113 1.250255 8.000000 44
0.624742  -8.059569 71.563290 1.247891 8.000000 45
0.638224  -8.150042 72.678865 1.245718 8.000000 46
0.651711  -8.235653 73.748701 1.243720 8.000000 47
0.665204  -8.316658 74.773813 1.241882 8.000000 48
0.678702  -8.393302 75.755329 1.240189 8.000000 49
0.692205  -8.465817 76.694473 1.238629 8.000000 50
0.705714  -8.534426 77.592539 1.237189 8.000000 51
0.719229  -8.599341 78.450874 1.235860 8.000000 52
0.732749  -8.660764 79.270858 1.234631 8.000000 53
0.746274  -8.718886 80.053892 1.233493 8.000000 54
0.759806  -8.773891 80.801388 1.232437 8.000000 55
0.773342  -8.825951 81.514751 1.231457 8.000000 56
0.786884  -8.875230 82.195378 1.230545 8.000000 57
0.800431  -8.921884 82.844647 1.229695 8.000000 58
0.813984  -8.966060 83.463909 1.228900 8.000000 59
0.827541  -9.007898 84.054487 1.228157 8.000000 60
0.841104  -9.047529 84.617670 1.227460 8.000000 61
0.854671  -9.085078 85.154709 1.226805 8.000000 62
0.868243  -9.120664 85.666817 1.226188 8.000000 63
0.881820  -9.154397 86.155165 1.225605 8.000000 64
0.895401  -9.186382 86.620883 1.225052 8.000000 65
0.908986  -9.216718 87.065057 1.224528 8.000000 66
0.922576  -9.245499 87.488732 1.224029 8.000000 67
0.936170  -9.272813 87.892908 1.223553 8.000000 68
0.949767  -9.298743 88.278544 1.223097 8.000000 69
0.963369  -9.323366 88.646556 1.222659 8.000000 70
0.976974  -9.346758 88.997820 1.222239 8.000000 71
0.990583  -9.368986 89.333173 1.221833 8.000000 72
1.004195  -9.390117 89.653410 1.221440 8.000000 73
1.017810  -9.410212 89.959293 1.221059 8.000000 74
1.031429  -9.429330 90.251542 1.220689 8.000000 75
1.045050  -9.447524 90.530847 1.220328 8.000000 76
1.058675  -9.464846 90.797861 1.219976 8.000000 77
1.072302  -9.481345 91.053207 1.219631 8.000000 78
1.085933  -9.497066 91.297473 1.219292 8.000000 79
1.099565  -9.512052 91.531221 1.218959 8.000000 80
1.113201  -9.526344 91.754984 1.218632 8.000000 81
1.126838  -9.539979 91.969267 1.218308 8.000000 82
1.140478  -9.552994 92.174548 1.217988 8.000000 83
1.154120  -9.565422 92.371283 1.217672 8.000000 84
1.167765  -9.577295 92.559902 1.217358 8.000000 85
1.181411  -9.588644 92.740815 1.217046 8.000000 86
1.195059  -9.599495 92.914409 1.216735 8.000000 87
1.208709  -9.609877 93.081052 1.216427 8.000000 88
1.222361  -9.619814 93.241092 1.216119 8.000000 89
1.236015  -9.629329 93.394859 1.215812 8.000000 90
1.249670  -9.638446 93.542668 1.215505 8.000000 91
1.263327  -9.647184 93.684813 1.215198 8.000000 92
1.276985  -9.655565 93.821578 1.214891 8.000000 93
1.290645  -9.663606 93.953228 1.214584 8.000000 94
1.304306  -9.671326 94.080017 1.214276 8.000000 95
1.317969  -9.678741 94.202184 1.213968 8.000000 96
1.331632  -9.685867 94.319957 1.213659 8.000000 97
1.345297  -9.692718 94.433551 1.213348 8.000000 98
1.358963  -9.699309 94.543171 1.213037 8.000000 99
1.372630  -9.705654 94.649011 1.212724 8.000000 100
1.386299  -9.711764 94.751255 1.212409 8.000000 101
1.399968  -9.717652 94.850078 1.212093 8.000000 102
1.413638  -9.723328 94.945645 1.211776 8.000000 103
1.427309  -9.728804 95.038113 1.211457 8.000000 104
1.440981  -9.734089 95.127632 1.211136 8.000000 105
1.454653  -9.739193 95.214343 1.210813 8.000000 106
1.468327  -9.744125 95.298382 1.210488 8.000000 107
1.482001  -9.748894 95.379875 1.210161 8.000000 108
1.495676  -9.753507 95.458945 1.209832 8.000000 109
1.509351  -9.757972 95.535705 1.209502 8.000000 110
1.523028  -9.762297 95.610267 1.209169 8.000000 111
1.536704  -9.766488 95.682734 1.208833 8.000000 112
1.550382  -9.770552 95.753205 1.208496 8.000000 113
1.564060  -9.774495 95.821774 1.208157 8.000000 114
1.577738  -9.778322 95.888531 1.207815 8.000000 115
1.591417  -9.782040 95.953561 1.207471 8.000000 116
1.605096  -9.785654 96.016944 1.207125 8.000000 117
1.618776  -9.789168 96.078758 1.206776 8.000000 118
1.632456  -9.792587 96.139076 1.206425 8.000000 119
1.646137  -9.795917 96.197968 1.206072 8.000000 120
1.659818  -9.799161 96.255501 1.205716 8.000000 121
1.673499  -9.802322 96.311737 1.205358 8.000000 122
1.687180  -9.805406 96.366737 1.204998 8.000000 123
1.700862  -9.808416 96.420558 1.204636 8.000000 124
1.714544  -9.811355 96.473256 1.204271 8.000000 125
1.728226  -9.814227 96.524881 1.203903 8.000000 126
1.741909  -9.817035 96.575484 1.203534 8.000000 127
1.755592  -9.819781 96.625113 1.203162 8.000000 128
1.769275  -9.822469 96.673812 1.202788 8.000000 129
1.782958  -9.825101 96.721625 1.202411 8.000000 130
1.796641  -9.827681 96.768592 1.202032 8.000000 131
1.810324  -9.830209 96.814753 1.201650 8.000000 132
1.824008  -9.832690 96.860146 1.201267 8.000000 133
1.837692  -9.835125 96.904806 1.200881 8.000000 134
1.851375  -9.837516 96.948767 1.200492 8.000000 135
1.865059  -9.839865 96.992062 1.200101 8.000000 136
1.878743  -9.842175 97.034722 1.199708 8.000000 137
1.892427  -9.844446 97.076776 1.199313 8.000000 138
1.906111  -9.846682 97.118254 1.198915 8.000000 139
1.919795  -9.848883 97.159182 1.198515 8.000000 140
1.933479  -9.851051 97.199587 1.198113 8.000000 141
1.947163  -9.853188 97.239493 1.197708 8.000000 142
1.960848  -9.855295 97.278923 1.197301 8.000000 143
1.974532  -9.857373 97.317902 1.196892 8.000000 144
1.988216  -9.859425 97.356449 1.196481 8.000000 145
2.001900  -9.861450 97.394587 1.196067 8.000000 146
2.015584  -9.863452 97.432334 1.195651 8.000000 147
2.029268  -9.865429 97.469710 1.195233 8.000000 148
2.042952  -9.867385 97.506734 1.194812 8.000000 149
2.056635  -9.869319 97.543422 1.194390 8.000000 150
2.070319  -9.871233 97.579791 1.193965 8.000000 151
2.084003  -9.873128 97.615858 1.193538 8.000000 152
2.097686  -9.875005 97.651637 1.193108 8.000000 153
2.111370  -9.876864 97.687143 1.192677 8.000000 154
2.125053  -9.878707 97.722391 1.192243 8.000000 155
2.138736  -9.880534 97.757393 1.191807 8.000000 156
2.152419  -9.882346 97.792162 1.191369 8.000000 157
2.166102  -9.884144 97.826712 1.190929 8.000000 158
2.179785  -9.885929 97.861053 1.190487 8.000000 159
2.193468  -9.887700 97.895197 1.190042 8.000000 160
2.207151  -9.889460 97.929155 1.189596 8.000000 161
2.220833  -9.891208 97.962937 1.189147 8.000000 162
2.234515  -9.892946 97.996554 1.188696 8.000000 163
2.248197  -9.894673 98.030015 1.188243 8.000000 164
2.261879  -9.896391 98.063328 1.187788 8.000000 165
2.275561  -9.898099 98.096503 1.187331 8.000000 166
2.289242  -9.899799 98.129549 1.186872 8.000000 167
2.302924  -9.901490 98.162473 1.186411 8.000000 168
2.316605  -9.903174 98.195283 1.185948 8.000000 169
2.330286  -9.904850 98.227987 1.185482 8.000000 170
2.343967  -9.906520 98.260591 1.185015 8.000000 171
2.357647  -9.908183 98.293102 1.184546 8.000000 172
2.371327  -9.909840 98.325528 1.184074 8.000000 173
2.385007  -9.911492 98.357874 1.183601 8.000000 174
2.398687  -9.913138 98.390146 1.183126 8.000000 175
2.412367  -9.914780 98.422351 1.182649 8.000000 176
2.426046  -9.916416 98.454493 1.182169 8.000000 177
2.439726  -9.918049 98.486578 1.181688 8.000000 178
2.453405  -9.919677 98.518611 1.181205 8.000000 179
2.467083  -9.921302 98.550597 1.180720 8.000000 180
2.480762  -9.922924 98.582540 1.180233 8.000000 181
2.494440  -9.924542 98.614446 1.179744 8.000000 182
2.508118  -9.926157 98.646317 1.179254 8.000000 183
2.521796  -9.927770 98.678159 1.178761 8.000000 184
2.535473  -9.929380 98.709976 1.178266 8.000000 185
2.549150  -9.930989 98.741770 1.177770 8.000000 186
2.562827  -9.932595 98.773546 1.177272 8.000000 187
2.576504  -9.934199 98.805307 1.176772 8.000000 188
2.590180  -9.935802 98.837056 1.176270 8.000000 189
2.603856  -9.937404 98.868797 1.175766 8.000000 190
2.617532  -9.939004 98.900532 1.175261 8.000000 191
2.631207  -9.940604 98.932265 1.174754 8.000000 192
2.644883  -9.942202 98.963997 1.174245 8.000000 193
2.658558  -9.943800 98.995733 1.173734 8.000000 194
2.672232  -9.945398 99.027473 1.173221 8.000000 195
2.685907  -9.946995 99.059221 1.172707 8.000000 196
2.699581  -9.948591 99.090978 1.172191 8.000000 197
2.713254  -9.950188 99.122747 1.171673 8.000000 198
2.726928  -9.951784 99.154530 1.171154 8.000000 199
2.740601  -9.953381 99.186329 1.170633 8.000000 200
2.754274  -9.954978 99.218146 1.170110 8.000000 201
2.767947  -9.956575 99.249982 1.169585 8.000000 202
2.781619  -9.958173 99.281839 1.169059 8.000000 203
2.795291  -9.959771 99.313718 1.168532 8.000000 204
2.808962  -9.961370 99.345622 1.168002 8.000000 205
2.822634  -9.962970 99.377551 1.167472 8.000000 206
2.836305  -9.964570 99.409506 1.166939 8.000000 207
2.849975  -9.966171 99.441489 1.166405 8.000000 208
2.863646  -9.967774 99.473502 1.165869 8.000000 209
2.877316  -9.969377 99.505544 1.165332 8.000000 210
2.890986  -9.970981 99.537618 1.164794 8.000000 211
2.904655  -9.972587 99.569723 1.164254 8.000000 212
2.918324  -9.974193 99.601861 1.163712 8.000000 213
2.931993  -9.975801 99.634033 1.163169 8.000000 214
2.945661  -9.977410 99.666239 1.162624 8.000000 215
2.959329  -9.979021 99.698481 1.162078 8.000000 216
2.972997  -9.980633 99.730758 1.161531 8.000000 217
2.986665  -9.982246 99.763071 1.160982 8.000000 218
3.000332  -9.983861 99.795420 1.160432 8.000000 219
3.013998  -9.985477 99.827807 1.159880 8.000000 220
3.027665  -9.987095 99.860231 1.159327 8.000000 221
3.041331  -9.988714 99.892693 1.158773 8.000000 222
3.054997  -9.990335 99.925193 1.158217 8.000000 223
3.068662  -9.991957 99.957731 1.157660 8.000000 224
3.082327  -9.993581 99.990307 1.157102 8.000000 225
3.095992  -9.995207 100.022922 1.156542 8.000000 226
3.109656  -9.996834 100.055576 1.155981 8.000000 227
3.123321  -9.998463 100.088268 1.155419 8.000000 228
3.136984  -10.000094 100.120999 1.154856 8.000000 229
3.150648  -10.001726 100.153769 1.154292 8.000000 230
3.164311  -10.003360 100.186577 1.153726 8.000000 231
3.177973  -10.004995 100.219423 1.153159 8.000000 232
3.191636  -10.006633 100.252308 1.152591 8.000000 233
3.205298  -10.008271 100.285230 1.152022 8.000000 234
3.218960  -10.009912 100.318190 1.151452 8.000000 235
3.232621  -10.011554 100.351188 1.150881 8.000000 236
3.246282  -10.013198 100.384223 1.150309 8.000000 237
3.259943  -10.014843 100.417295 1.149736 8.000000 238
3.273603  -10.016490 100.450403 1.149161 8.000000 239
3.287263  -10.018139 100.483547 1.148586 8.000000 240
3.300922  -10.019789 100.516727 1.148010 8.000000 241
3.314582  -10.021440 100.549942 1.147432 8.000000 242
3.328241  -10.023094 100.583191 1.146854 8.000000 243
3.341899  -10.024748 100.616475 1.146275 8.000000 244
3.355558  -10.026405 100.649791 1.145695 8.000000 245
3.369215  -10.028062 100.683141 1.145114 8.000000 246
3.382873  -10.029721 100.716523 1.144532 8.000000 247
3.396530  -10.031382 100.749937 1.143950 8.000000 248
3.410187  -10.033044 100.783381 1.143366 8.000000 249
3.423844  -10.034707 100.816856 1.142782 8.000000 250
3.437500  -10.036371 100.850360 1.142197 8.000000 251
3.451156  -10.038037 100.883893 1.141611 8.000000 252
3.464811  -10.039704 100.917455 1.141025 8.000000 253
3.478466  -10.041372 100.951043 1.140438 8.000000 254
3.492121  -10.043042 100.984658 1.139850 8.000000 255
3.505776  -10.044712 101.018298 1.139261 8.000000 256
3.519430  -10.046384 101.051963 1.138672 8.000000 257
3.533084  -10.048057 101.085652 1.138083 8.000000 258
3.546737  -10.049731 101.119364 1.137492 8.000000 259
3.560390  -10.051405 101.153098 1.136901 8.000000 260
3.574043  -10.053081 101.186853 1.136310 8.000000 261
3.587696  -10.054758 101.220628 1.135718 8.000000 262
3.601348  -10.056435 101.254422 1.135126 8.000000 263
3.614999  -10.058113 101.288235 1.134533 8.000000 264
3.628651  -10.059792 101.322065 1.133940 8.000000 265
3.642302  -10.061472 101.355911 1.133346 8.000000 266
3.655953  -10.063152 101.389773 1.132752 8.000000 267
3.669603  -10.064833 101.423648 1.132157 8.000000 268
3.683254  -10.066514 101.457537 1.131562 8.000000 269
3.696903  -10.068196 101.491437 1.130967 8.000000 270
3.710553  -10.069879 101.525349 1.130371 8.000000 271
3.724202  -10.071561 101.559271 1.129776 8.000000 272
3.737851  -10.073244 101.593201 1.129180 8.000000 273
3.751499  -10.074928 101.627139 1.128583 8.000000 274
3.765148  -10.076612 101.661083 1.127987 8.000000 275
3.778795  -10.078295 101.695033 1.127390 8.000000 276
3.792443  -10.079979 101.728987 1.126793 8.000000 277
3.806090  -10.081663 101.762944 1.126196 8.000000 278
3.819737  -10.083348 101.796903 1.125599 8.000000 279
3.833384  -10.085032 101.830862 1.125002 8.000000 280
3.847030  -10.086715 101.864821 1.124405 8.000000 281
3.860676  -10.088399 101.898779 1.123808 8.000000 282
3.874322  -10.090083 101.932733 1.123211 8.000000 283
3.887967  -10.091766 101.966684 1.122613 8.000000 284
3.901612  -10.093449 102.000629 1.122016 8.000000 285
3.915257  -10.095132 102.034567 1.121419 8.000000 286
3.928902  -10.096814 102.068498 1.120822 8.000000 287
3.942546  -10.098495 102.102420 1.120225 8.000000 288
3.956190  -10.100176 102.136332 1.119628 8.000000 289
3.969833  -10.101857 102.170232 1.119032 8.000000 290
3.983476  -10.103537 102.204119 1.118435 8.000000 291
3.997119  -10.105216 102.237992 1.117839 8.000000 292
4.010762  -10.106894 102.271850 1.117243 8.000000 293
4.024405  -10.108571 102.305692 1.116647 8.000000 294
4.038047  -10.110247 102.339515 1.116052 8.000000 295
4.051689  -10.111923 102.373320 1.115457 8.000000 296
4.065330  -10.113597 102.407104 1.114862 8.000000 297
4.078971  -10.115270 102.440867 1.114268 8.000000 298
4.092612  -10.116942 102.474606 1.113674 8.000000 299
4.106253  -10.118613 102.508322 1.113080 8.000000 300
4.119893  -10.120282 102.542012 1.112487 8.000000 301
4.133534  -10.121951 102.575675 1.111894 8.000000 302
4.147174  -10.123617 102.609311 1.111302 8.000000 303
4.160813  -10.125282 102.642917 1.110710 8.000000 304
4.174453  -10.126946 102.676492 1.110119 8.000000 305
4.188092  -10.128608 102.710036 1.109528 8.000000 306
4.201730  -10.130268 102.743546 1.108938 8.000000 307
4.215369  -10.131927 102.777023 1.108349 8.000000 308
4.229007  -10.133583 102.810463 1.107760 8.000000 309
4.242645  -10.135238 102.843866 1.107172 8.000000 310
4.256283  -10.136891 102.877232 1.106584 8.000000 311
4.269921  -10.138542 102.910557 1.105998 8.000000 312
4.283558  -10.140191 102.943842 1.105412 8.000000 313
4.297195  -10.141838 102.977085 1.104826 8.000000 314
4.310832  -10.143482 103.010285 1.104242 8.000000 315
4.324469  -10.145125 103.043440 1.103658 8.000000 316
4.338105  -10.146765 103.076550 1.103075 8.000000 317
4.351741  -10.148402 103.109612 1.102493 8.000000 318
4.365377  -10.150038 103.142626 1.101912 8.000000 319
4.379013  -10.151670 103.175591 1.101332 8.000000 320
4.392648  -10.153301 103.208505 1.100752 8.000000 321
4.406283  -10.154928 103.241367 1.100174 8.000000 322
4.419918  -10.156553 103.274176 1.099596 8.000000 323
4.433553  -10.158176 103.306930 1.099020 8.000000 324
4.447187  -10.159795 103.339629 1.098444 8.000000 325
4.460822  -10.161412 103.372271 1.097869 8.000000 326
4.474456  -10.163025 103.404855 1.097296 8.000000 327
4.488090  -10.164636 103.437379 1.096724 8.000000 328
4.501723  -10.166244 103.469844 1.096152 8.000000 329
4.515357  -10.167848 103.502247 1.095582 8.000000 330
4.528990  -10.169450 103.534587 1.095013 8.000000 331
4.542623  -10.171048 103.566863 1.094445 8.000000 332
4.556256  -10.172643 103.599075 1.093878 8.000000 333
4.569889  -10.174235 103.631220 1.093313 8.000000 334
4.583521  -10.175824 103.663298 1.092748 8.000000 335
4.597154  -10.177409 103.695307 1.092185 8.000000 336
4.610786  -10.178990 103.727247 1.091623 8.000000 337
4.624418  -10.180568 103.759116 1.091062 8.000000 338
4.638049  -10.182143 103.790914 1.090503 8.000000 339
4.651681  -10.183714 103.822638 1.089945 8.000000 340
4.665312  -10.185281 103.854289 1.089388 8.000000 341
4.678944  -10.186844 103.885865 1.088833 8.000000 342
4.692575  -10.188404 103.917365 1.088279 8.000000 343
4.706206  -10.189960 103.948788 1.087726 8.000000 344
4.719836  -10.191512 103.980132 1.087175 8.000000 345
4.733467  -10.193060 104.011398 1.086625 8.000000 346
4.747097  -10.194604 104.042583 1.086077 8.000000 347
4.760727  -10.196144 104.073687 1.085530 8.000000 348
4.774358  -10.197679 104.104709 1.084985 8.000000 349
4.787988  -10.199211 104.135648 1.084441 8.000000 350
4.801617  -10.200739 104.166503 1.083899 8.000000 351
4.815247  -10.202262 104.197273 1.083358 8.000000 352
4.828876  -10.203781 104.227956 1.082818 8.000000 353
4.842506  -10.205296 104.258553 1.082281 8.000000 354
4.856135  -10.206806 104.289062 1.081744 8.000000 355
4.869764  -10.208312 104.319482 1.081210 8.000000 356
4.883393  -10.209814 104.349812 1.080677 8.000000 357
4.897022  -10.211311 104.380052 1.080146 8.000000 358
4.910651  -10.212803 104.410200 1.079616 8.000000 359
4.924279  -10.214291 104.440256 1.079088 8.000000 360
4.937908  -10.215774 104.470219 1.078562 8.000000 361
4.951536  -10.217253 104.500087 1.078037 8.000000 362
4.965164  -10.218726 104.529861 1.077514 8.000000 363
4.978792  -10.220196 104.559539 1.076993 8.000000 364
4.992420  -10.221660 104.589121 1.076473 8.000000 365
5.006048  -10.223119 104.618605 1.075955 8.000000 366
5.019676  -10.224574 104.647992 1.075439 8.000000 367
5.033304  -10.226024 104.677279 1.074925 8.000000 368
5.046931  -10.227468 104.706467 1.074413 8.000000 369
5.060559  -10.228908 104.735555 1.073902 8.000000 370
5.074186  -10.230343 104.764541 1.073393 8.000000 371
5.087814  -10.231773 104.793426 1.072886 8.000000 372
5.101441  -10.233197 104.822209 1.072381 8.000000 373
5.115068  -10.234617 104.850888 1.071877 8.000000 374
5.128695  -10.236031 104.879464 1.071376 8.000000 375
5.142322  -10.237440 104.907935 1.070876 8.000000 376
5.155949  -10.238844 104.936301 1.070378 8.000000 377
5.169576  -10.240243 104.964561 1.069883 8.000000 378
5.183202  -10.241636 104.992715 1.069389 8.000000 379
