 # inv_tmp, energy, phys_var, phys_doublon, phys_num, step_i
0.0165599155524540  7.2264372565823516 97.4738363421442671 1.9606103358600322 8.0000000000000000 1
0.0329164813713444  6.4803285966579498 86.6894624235257112 1.9231893941563341 8.0000000000000000 2
0.0490792247941757  5.7486803191719060 77.0086262386493274 1.8863499221197251 8.0000000000000000 3
0.0650586404393201  5.0340119932023377 68.4155568630671809 1.8502503916692707 8.0000000000000000 4
0.0808658615878589  4.3384226218225121 60.8790727291667935 1.8150310453271548 7.9999999999999991 5
0.0965123595566010  3.6635931902335130 54.3552452444095238 1.7808123544547745 8.0000000000000000 6
0.1120096826005701  3.0108055396922522 48.7901727052044976 1.7476944396780876 7.9999999999999991 7
0.1273692404620567  2.3809734441621035 44.1226889596979746 1.7157573234915136 8.0000000000000018 8
0.1426021358758763  1.7746816382360902 40.2868728900365980 1.6850618428868536 8.0000000000000000 9
0.1577190405795327  1.1922288741375300 37.2142692725824560 1.6556510357103085 8.0000000000000000 10
0.1727301108303530  0.6336717191867567 34.8357729863610359 1.6275518231674204 8.0000000000000000 11
0.1876449360513364  0.0988665879370371 33.0831630769281162 1.6007768352178817 8.0000000000000000 12
0.2024725138235518  -0.4124916958266807 31.8902991297826119 1.5753262580531995 7.9999999999999991 13
0.2172212447583116  -0.9008357868210863 31.1940097088396229 1.5511896170636588 7.9999999999999982 14
0.2318989415531091  -1.3666965406543050 30.9347123093772112 1.5283474400970272 8.0000000000000000 15
0.2465128475306314  -1.8106785125011013 31.0568079510663395 1.5067727717154413 8.0000000000000000 16
0.2610696610023671  -2.2334398775341633 31.5088929118879122 1.4864325285435658 7.9999999999999991 17
0.2755755627672760  -2.6356762497190367 32.2438267437455721 1.4672886988557188 8.0000000000000018 18
0.2900362448833398  -3.0181078067832541 33.2186908870678366 1.4492993971979087 8.0000000000000000 19
0.3044569395081694  -3.3814691319482617 34.3946668505985116 1.4324197883413867 8.0000000000000000 20
0.3188424470955600  -3.7265012315383856 35.7368576671586808 1.4166028955094718 7.9999999999999991 21
0.3331971635767953  -4.0539452607281081 37.2140715428454385 1.4018003067467535 8.0000000000000000 22
0.3475251063759741  -4.3645375716664336 38.7985824612314616 1.3879627914015089 8.0000000000000000 23
0.3618299392370020  -4.6590057782906662 40.4658790314936780 1.3750408365951166 7.9999999999999982 24
0.3761149959033985  -4.9380656038559581 42.1944100470583692 1.3629851116424490 8.0000000000000000 25
0.3903833027136114  -5.2024183374145370 43.9653329752185797 1.3517468668578054 8.0000000000000000 26
0.4046376001718749  -5.4527487733784827 45.7622698386859454 1.3412782720861434 8.0000000000000018 27
0.4188803635405776  -5.6897235445967356 47.5710735879008055 1.3315326996053178 8.0000000000000018 28
0.4331138224830321  -5.9139897856117098 49.3796070176386621 1.3224649556711912 8.0000000000000000 29
0.4473399797704335  -6.1261740808207712 51.1775354848382591 1.3140314648271478 7.9999999999999991 30
0.4615606290560507  -6.3268816640573622 52.9561340812975416 1.3061904110799698 8.0000000000000018 31
0.4757773717139943  -6.5166958433503295 54.7081094613066412 1.2989018400777685 7.9999999999999991 32
0.4899916327388494  -6.6961776287636638 56.4274361866468155 1.2921277264551363 8.0000000000000036 33
0.5042046757051155  -6.8658655434005986 58.1092072038024270 1.2858320104984116 8.0000000000000000 34
0.5184176167906054  -7.0262755987201935 59.7494978909139860 1.2799806082103020 7.9999999999999982 35
0.5326314378746388  -7.1779014158493109 61.3452429897099165 1.2745413987121244 8.0000000000000000 36
0.5468469987290363  -7.3212144749598238 62.8941256585607746 1.2694841927179152 8.0000000000000000 37
0.5610650483268838  -7.4566644752417712 64.3944778375704630 1.2647806855579378 8.0000000000000000 38
0.5752862353002486  -7.5846797886462340 65.8451910978005941 1.2604043979333373 8.0000000000000000 39
0.5895111175831897  -7.7056679914279691 67.2456371482890631 1.2563306072633700 8.0000000000000000 40
0.6037401712803694  -7.8200164585705814 68.5955971915534519 1.2525362721554636 8.0000000000000018 41
0.6179737988043206  -7.9280930073838265 69.8951993467384511 1.2489999521984521 8.0000000000000000 42
0.6322123363260193  -8.0302465778705265 71.1448633961837373 1.2457017249603766 7.9999999999999982 43
0.6464560605839870  -8.1268079388159915 72.3452521532726394 1.2426231017717169 8.0000000000000000 44
0.6607051950968605  -8.2180904099079104 73.4972287948224334 1.2397469435979322 8.0000000000000018 45
0.6749599158233618  -8.3043905915096783 74.6018195482736246 1.2370573780548728 8.0000000000000000 46
0.6892203563120776  -8.3859890949549865 75.6601811711965837 1.2345397183983622 8.0000000000000018 47
0.7034866123815215  -8.4631512673852498 76.6735727071386037 1.2321803851251532 8.0000000000000000 48
0.7177587463687608  -8.5361279062015569 77.6433310468284503 1.2299668306555886 7.9999999999999991 49
0.7320367909825373  -8.6051559591429125 78.5708498667056574 1.2278874674269542 8.0000000000000000 50
0.7463207527944036  -8.6704592068324100 79.4575615572894662 1.2259315996086508 8.0000000000000000 51
0.7606106153989692  -8.7322489253558970 80.3049217918333511 1.2240893585535313 8.0000000000000000 52
0.7749063422719962  -8.7907245270596146 81.1143964209201584 1.2223516420216067 7.9999999999999991 53
0.7892078793528116  -8.8460741782826773 81.8874504111251298 1.2207100571504250 8.0000000000000000 54
0.8035151573753444  -8.8984753931852882 82.6255385756488181 1.2191568670984287 8.0000000000000000 55
0.8178280939700743  -8.9480956032042016 83.3300978719976229 1.2176849412513939 8.0000000000000000 56
0.8321465955572827  -8.9950927019715863 84.0025410664831327 1.2162877088556747 7.9999999999999991 57
0.8464705590502634  -9.0396155657812152 84.6442515876710075 1.2149591159237350 7.9999999999999982 58
0.8607998733855249  -9.0818045498846658 85.2565794110884667 1.2136935852457738 8.0000000000000000 59
0.8751344208955513  -9.1217919610571343 85.8408378356575810 1.2124859793349094 8.0000000000000000 60
0.8894740785383274  -9.1597025069944582 86.3983010286212902 1.2113315661311865 8.0000000000000000 61
0.9038187189966052  -9.1956537231950861 86.9302022303237436 1.2102259872907337 8.0000000000000000 62
0.9181682116587578  -9.2297563780487089 87.4377325232509008 1.2091652288899086 8.0000000000000036 63
0.9325224234920404  -9.2621148569008724 87.9220400813706675 1.2081455943795909 7.9999999999999982 64
0.9468812198181394  -9.2928275258940687 88.3842298261699284 1.2071636796314036 8.0000000000000018 65
0.9612444650000426  -9.3219870764032482 88.8253634249915507 1.2062163499250906 7.9999999999999991 66
0.9756120230484752  -9.3496808508908344 89.2464595754469201 1.2053007187343359 8.0000000000000018 67
0.9899837581554430  -9.3759911510041718 89.6484945269162381 1.2044141281765053 7.9999999999999982 68
1.0043595351617733  -9.4009955287298475 90.0324027965575056 1.2035541310002000 7.9999999999999973 69
1.0187392199649441  -9.4247670614051309 90.3990780429017633 1.2027184739926760 8.0000000000000018 70
1.0331226798729611  -9.4473746113686676 90.7493740651071761 1.2019050826972615 8.0000000000000018 71
1.0475097839095338  -9.4688830710112857 91.0841059003422657 1.2011120473386334 7.9999999999999991 72
1.0619004030753514  -9.4893535939640827 91.4040509956379168 1.2003376098611900 8.0000000000000000 73
1.0762944105698460  -9.5088438131358046 91.7099504339460481 1.1995801519928011 7.9999999999999991 74
1.0906916819774353  -9.5274080462853270 92.0025101971247778 1.1988381842528180 7.9999999999999991 75
1.1050920954219048  -9.5450974897880023 92.2824024511780294 1.1981103358294420 7.9999999999999991 76
1.1194955316922470  -9.5619604012274930 92.5502668413592744 1.1973953452573478 8.0000000000000000 77
1.1339018743429938  -9.5780422714175515 92.8067117867396405 1.1966920518318713 8.0000000000000018 78
1.1483110097718017  -9.5933859864311444 93.0523157655731836 1.1959993877010928 8.0000000000000000 79
1.1627228272767975  -9.6080319801878513 93.2876285842986306 1.1953163705818026 7.9999999999999982 80
1.1771372190959719  -9.6220183781243289 93.5131726243232464 1.1946420970496392 8.0000000000000000 81
1.1915540804306848  -9.6353811324472254 93.7294440618630489 1.1939757363576671 8.0000000000000000 82
1.2059733094551719  -9.6481541494434815 93.9369140570901209 1.1933165247413462 8.0000000000000000 83
1.2203948073137452  -9.6603694092986636 94.1360299096739652 1.1926637601711947 8.0000000000000000 84
1.2348184781072384  -9.6720570788512887 94.3272161785243384 1.1920167975175895 7.9999999999999982 85
1.2492442288700853  -9.6832456176886410 94.5108757641560118 1.1913750440949937 8.0000000000000000 86
1.2636719695392893  -9.6939618779683023 94.6873909526184150 1.1907379555555382 8.0000000000000000 87
1.2781016129164191  -9.7042311983291754 94.8571244203762234 1.1901050321043032 8.0000000000000000 88
1.2925330746236543  -9.7140774922360080 95.0204201998978277 1.1894758150108729 8.0000000000000036 89
1.3069662730547913  -9.7235233310828999 95.1776046060219301 1.1888498833937691 8.0000000000000000 90
1.3214011293220385  -9.7325900223631585 95.3289871234302524 1.1882268512562595 8.0000000000000000 91
1.3358375671993366  -9.7412976831958851 95.4748612557675926 1.1876063647537431 8.0000000000000000 92
1.3502755130628596  -9.7496653094834631 95.6155053371243184 1.1869880996745124 8.0000000000000018 93
1.3647148958292881  -9.7577108409585840 95.7511833067353564 1.1863717591171403 8.0000000000000018 94
1.3791556468923727  -9.7654512223647139 95.8821454478587611 1.1857570713490666 7.9999999999999964 95
1.3935977000582542  -9.7729024610001325 96.0086290918830088 1.1851437878322051 7.9999999999999973 96
1.4080409914799534  -9.7800796808421566 96.1308592887732800 1.1845316814024924 7.9999999999999991 97
1.4224854595913827  -9.7869971734559122 96.2490494450130569 1.1839205445913650 8.0000000000000018 98
1.4369310450412083  -9.7936684458799235 96.3634019302250522 1.1833101880780783 8.0000000000000018 99
1.4513776906268347  -9.8001062656696405 96.4741086536720900 1.1827004392626734 8.0000000000000018 100
1.4658253412287570  -9.8063227032693661 96.5813516118419813 1.1820911409501851 8.0000000000000000 101
1.4802739437454895  -9.8123291718729853 96.6853034083176368 1.1814821501374448 8.0000000000000000 102
1.4947234470292545  -9.8181364649244216 96.7861277471190107 1.1808733368944935 8.0000000000000000 103
1.5091738018225813  -9.8237547913997858 96.8839799006877058 1.1802645833332590 8.0000000000000036 104
1.5236249606959558  -9.8291938090046607 96.9790071536587277 1.1796557826567156 7.9999999999999982 105
1.5380768779866230  -9.8344626554121106 97.0713492235392437 1.1790468382822952 8.0000000000000018 106
1.5525295097386378  -9.8395699776592647 97.1611386593794748 1.1784376630337678 8.0000000000000018 107
1.5669828136442436  -9.8445239598135572 97.2485012194931215 1.1778281783963140 8.0000000000000018 108
1.5814367489866292  -9.8493323490126841 97.3335562292440670 1.1772183138298691 8.0000000000000000 109
1.5958912765841218  -9.8540024799762627 97.4164169198841279 1.1766080061362354 7.9999999999999982 110
1.6103463587358433  -9.8585412980812368 97.4971907493881531 1.1759971988758027 8.0000000000000018 111
1.6248019591688605  -9.8629553810873958 97.5759797061951133 1.1753858418300260 8.0000000000000000 112
1.6392580429868397  -9.8672509595942657 97.6528805967281528 1.1747738905061320 8.0000000000000000 113
1.6537145766202181  -9.8714339363056105 97.7279853175276401 1.1741613056807707 8.0000000000000018 114
1.6681715277778890  -9.8755099041731427 97.8013811127960935 1.1735480529796078 8.0000000000000000 115
1.6826288654003982  -9.8794841634868202 97.8731508181177787 1.1729341024900739 8.0000000000000000 116
1.6970865596146363  -9.8833617379747736 97.9433730910796356 1.1723194284046943 8.0000000000000000 117
1.7115445816900179  -9.8871473899723092 98.0121226294874930 1.1717040086926442 8.0000000000000000 118
1.7260029039961207  -9.8908456347156459 98.0794703778369126 1.1710878247973282 8.0000000000000018 119
1.7404614999617678  -9.8944607538127229 98.1454837226668815 1.1704708613579733 8.0000000000000000 120
1.7549203440355237  -9.8979968079402063 98.2102266773929102 1.1698531059533743 7.9999999999999982 121
1.7693794116475789  -9.9014576488128601 98.2737600571862089 1.1692345488660640 8.0000000000000000 122
1.7838386791729877  -9.9048469304685351 98.3361416444371343 1.1686151828653257 8.0000000000000000 123
1.7982981238962354  -9.9081681199095684 98.3974263453134483 1.1679950030075825 8.0000000000000000 124
1.8127577239770969  -9.9114245071387135 98.4576663378970238 1.1673740064528100 8.0000000000000018 125
1.8272174584177514  -9.9146192146255014 98.5169112123580248 1.1667521922957185 8.0000000000000018 126
1.8416773070311243  -9.9177552062367909 98.5752081036008434 1.1661295614105605 7.9999999999999982 127
1.8561372504104168  -9.9208352956630730 98.6326018167935672 1.1655061163084899 8.0000000000000000 128
1.8705972698997899  -9.9238621543702905 98.6891349461697729 1.1648818610064926 7.9999999999999991 129
1.8850573475661676  -9.9268383191051459 98.7448479874723830 1.1642568009069838 8.0000000000000018 130
1.8995174661721239  -9.9297661989800297 98.7997794443868713 1.1636309426872264 8.0000000000000018 131
1.9139776091498164  -9.9326480821622951 98.8539659292947164 1.1630042941978067 7.9999999999999991 132
1.9284377605759371  -9.9354861421909959 98.9074422586585627 1.1623768643694450 8.0000000000000018 133
1.9428979051476405  -9.9382824439427999 98.9602415433330407 1.1617486631274776 8.0000000000000000 134
1.9573580281594190  -9.9410389492675915 99.0123952740812285 1.1611197013134149 8.0000000000000000 135
1.9718181154808907  -9.9437575223129144 99.0639334025590159 1.1604899906130013 8.0000000000000000 136
1.9862781535354692  -9.9464399345552970 99.1148844180160609 1.1598595434902577 8.0000000000000000 137
2.0007381292798785  -9.9490878695554823 99.1652754199491540 1.1592283731270341 8.0000000000000000 138
2.0151980301844894  -9.9517029274534394 99.2151321869291110 1.1585964933676245 8.0000000000000018 139
2.0296578442144408  -9.9542866292181689 99.2644792418109887 1.1579639186680344 8.0000000000000000 140
2.0441175598115202  -9.9568404206664596 99.3133399135263062 1.1573306640495296 8.0000000000000000 141
2.0585771658767711  -9.9593656762637082 99.3617363956430779 1.1566967450561076 7.9999999999999982 142
2.0730366517538030  -9.9618637027194357 99.4096898018716644 1.1560621777155851 8.0000000000000036 143
2.0874960072127760  -9.9643357423890446 99.4572202186814280 1.1554269785039848 7.9999999999999982 144
2.1019552224350306  -9.9667829764930165 99.5043467551878393 1.1547911643129729 8.0000000000000000 145
2.1164142879983427  -9.9692065281637596 99.5510875904562624 1.1541547524200675 7.9999999999999982 146
2.1308731948627719  -9.9716074653299849 99.5974600183650125 1.1535177604614084 8.0000000000000018 147
2.1453319343570896  -9.9739868034477048 99.6434804901584812 1.1528802064068553 8.0000000000000018 148
2.1597904981657501  -9.9763455080865864 99.6891646548168211 1.1522421085372310 8.0000000000000000 149
2.1742488783163987  -9.9786844973796693 99.7345273973594999 1.1516034854235124 8.0000000000000000 150
2.1887070671678779  -9.9810046443442246 99.7795828751944782 1.1509643559078129 7.9999999999999982 151
2.2031650573987278  -9.9833067790808911 99.8243445526190385 1.1503247390859948 8.0000000000000036 152
2.2176228419961461  -9.9855916908578521 99.8688252335702487 1.1496846542917625 7.9999999999999973 153
2.2320804142454005  -9.9878601300865739 99.9130370927215665 1.1490441210821252 8.0000000000000000 154
2.2465377677196647  -9.9901128101949084 99.9569917050110632 1.1484031592240753 8.0000000000000000 155
2.2609948962702706  -9.9923504094034605 100.0007000736883640 1.1477617886824043 7.9999999999999982 156
2.2754517940173469  -9.9945735724103901 100.0441726569572012 1.1471200296085291 7.9999999999999982 157
2.2899084553408424  -9.9967829119897509 100.0874193932890535 1.1464779023302412 7.9999999999999991 158
2.3043648748719034  -9.9989790105081102 100.1304497254791386 1.1458354273422970 7.9999999999999991 159
2.3188210474846036  -10.0011624213639170 100.1732726235107975 1.1451926252977618 8.0000000000000000 160
2.3332769682879975  -10.0033336703537881 100.2158966062912100 1.1445495170000322 8.0000000000000000 161
2.3477326326184977  -10.0054932569697641 100.2583297623190077 1.1439061233954813 8.0000000000000000 162
2.3621880360325545  -10.0076416556312076 100.3005797693390519 1.1432624655666470 8.0000000000000000 163
2.3766431742996197  -10.0097793168548961 100.3426539130380206 1.1426185647259206 8.0000000000000000 164
2.3910980433953988  -10.0119066683667004 100.3845591048313679 1.1419744422096767 8.0000000000000000 165
2.4055526394953612  -10.0140241161578629 100.4263018987888643 1.1413301194727961 8.0000000000000018 166
2.4200069589685089  -10.0161320454889911 100.4678885077435666 1.1406856180835387 8.0000000000000000 167
2.4344609983713874  -10.0182308218444547 100.5093248186274479 1.1400409597187318 8.0000000000000018 168
2.4489147544423293  -10.0203207918398540 100.5506164070725106 1.1393961661592211 7.9999999999999982 169
2.4633682240959240  -10.0224022840851212 100.5917685513174575 1.1387512592855753 8.0000000000000000 170
2.4778214044176980  -10.0244756100054548 100.6327862454531328 1.1381062610739829 8.0000000000000000 171
2.4922742926589967  -10.0265410646225064 100.6736742120436929 1.1374611935923467 8.0000000000000036 172
2.5067268862320677  -10.0285989272977236 100.7144369141529268 1.1368160789965183 8.0000000000000000 173
2.5211791827053269  -10.0306494624400067 100.7550785668086633 1.1361709395266786 8.0000000000000000 174
2.5356311797988007  -10.0326929201793966 100.7956031479317005 1.1355257975038184 8.0000000000000000 175
2.5500828753797413  -10.0347295370086620 100.8360144087582455 1.1348806753263183 7.9999999999999991 176
2.5645342674584097  -10.0367595363944471 100.8763158837808191 1.1342355954665977 7.9999999999999982 177
2.5789853541840029  -10.0387831293595013 100.9165109002323248 1.1335905804678306 8.0000000000000000 178
2.5934361338407412  -10.0408005150375494 100.9566025871359898 1.1329456529406994 8.0000000000000000 179
2.6078866048440918  -10.0428118812021694 100.9965938839434898 1.1323008355601849 8.0000000000000000 180
2.6223367657371299  -10.0448174047710594 101.0364875487819063 1.1316561510623804 8.0000000000000000 181
2.6367866151870301  -10.0468172522868748 101.0762861663287424 1.1310116222413125 8.0000000000000018 182
2.6512361519816814  -10.0488115803759239 101.1159921553337426 1.1303672719457680 8.0000000000000000 183
2.6656853750264204  -10.0508005361857933 101.1556077758056205 1.1297231230761164 8.0000000000000000 184
2.6801342833408812  -10.0527842578029496 101.1951351358791840 1.1290791985811168 8.0000000000000018 185
2.6945828760559469  -10.0547628746514253 101.2345761983799832 1.1284355214547106 8.0000000000000000 186
2.7090311524108110  -10.0567365078734134 101.2739327871003496 1.1277921147327903 7.9999999999999982 187
2.7234791117501342  -10.0587052706927977 101.3132065928016630 1.1271490014899399 7.9999999999999982 188
2.7379267535212968  -10.0606692687623642 101.3523991789558067 1.1265062048361436 8.0000000000000018 189
2.7523740772717398  -10.0626286004956054 101.3915119872388146 1.1258637479134626 8.0000000000000000 190
2.7668210826463935  -10.0645833573838281 101.4305463427888867 1.1252216538926723 8.0000000000000000 191
2.7812677693851890  -10.0665336242992733 101.4695034592396041 1.1245799459698609 7.9999999999999982 192
2.7957141373206422  -10.0684794797850117 101.5083844435401375 1.1239386473629913 8.0000000000000000 193
2.8101601863755250  -10.0704209963321674 101.5471903005714580 1.1232977813084135 7.9999999999999991 194
2.8246059165605915  -10.0723582406452010 101.5859219375697364 1.1226573710573435 7.9999999999999991 195
