 # inv_tmp, energy, phys_var, phys_doublon, phys_num, step_i
0.0165599568756336  7.2267386310162038 97.9710481553359358 1.9584453338779961 8.0000000000000000 1
0.0329143852665627  6.4725897930242393 87.0511628882311186 1.9224715288136689 8.0000000000000000 2
0.0490731790620519  5.7336191646940478 77.2402805432561195 1.8873953059144961 7.9999999999999982 3
0.0650473888742637  5.0127419647242046 68.5276819206445396 1.8533432900667410 8.0000000000000000 4
0.0808488216031206  4.3123592686474055 60.8849072075588467 1.8204185108251054 8.0000000000000018 5
0.0964896702208821  3.6343557550786536 54.2686810814021783 1.7887011219205666 8.0000000000000000 6
0.1119821925836917  2.9801224910212762 48.6240901286078184 1.7582498304424443 8.0000000000000000 7
0.1273384496164818  2.3505983605985916 43.8877588232311950 1.7291038064908384 8.0000000000000000 8
0.1425701055420392  1.7463233854982891 39.9908242794560707 1.7012848633082593 7.9999999999999991 9
0.1576882868172431  1.1674977027335625 36.8615730163152975 1.6747997332690301 7.9999999999999982 10
0.1727034924527986  0.6140410506591119 34.4276640282944868 1.6496423072800543 8.0000000000000000 11
0.1876255463505197  0.0856489597450395 32.6179141705529005 1.6257957467602926 7.9999999999999982 12
0.2024635818446000  -0.4181568019288598 31.3636606790362897 1.6032344136661973 7.9999999999999982 13
0.2172260493134800  -0.8979847881552432 30.5997411007608768 1.5819255927351719 8.0000000000000000 14
0.2319207390730186  -1.3545377610870839 30.2651446057292510 1.5618310008460519 7.9999999999999964 15
0.2465548133817054  -1.7885835652253179 30.3033931993050665 1.5429080919632356 8.0000000000000000 16
0.2611348430028693  -2.2009322426054680 30.6627095704672747 1.5251111739397101 8.0000000000000000 17
0.2756668452018127  -2.5924184449704040 31.2960227169246146 1.5083923570344930 8.0000000000000036 18
0.2901563212212604  -2.9638881553880809 32.1608550635417885 1.4927023547402092 8.0000000000000018 19
0.3046082921556041  -3.3161887909691723 33.2191269292127274 1.4779911565370829 7.9999999999999982 20
0.3190273327542351  -3.6501618761142200 34.4369067691355681 1.4642085903149580 7.9999999999999982 21
0.3334176030702630  -3.9666376184931975 35.7841290850762306 1.4513047899933218 8.0000000000000000 22
0.3477828780845728  -4.2664308644137892 37.2342964289626934 1.4392305816649096 8.0000000000000000 23
0.3621265755265010  -4.5503380419183825 38.7641775175087062 1.4279377995789762 8.0000000000000000 24
0.3764517821247149  -4.8191348113620442 40.3535100212128839 1.4173795415469750 8.0000000000000000 25
0.3907612784894424  -5.0735742318566146 41.9847139418847917 1.4075103719111017 8.0000000000000000 26
0.4050575627750765  -5.3143853185764023 43.6426194944983052 1.3982864790426766 8.0000000000000018 27
0.4193428732171134  -5.5422719131467719 45.3142119207108465 1.3896657933929755 8.0000000000000000 28
0.4336192095893344  -5.7579118206727378 46.9883945637717915 1.3816080713593979 8.0000000000000000 29
0.4478883535909586  -5.9619561860632366 48.6557707323932505 1.3740749496125970 8.0000000000000000 30
0.4621518881504496  -6.1550290925489630 50.3084443008209661 1.3670299740193117 8.0000000000000036 31
0.4764112156217953  -6.3377273695570580 51.9398385783489474 1.3604386068621106 8.0000000000000018 32
0.4906675748482328  -6.5106205976914211 53.5445326927031715 1.3542682156793739 7.9999999999999982 33
0.5049220570748958  -6.6742512971927042 55.1181145376625992 1.3484880467110292 7.9999999999999982 34
0.5191756207031117  -6.8291352841261261 56.6570492134139130 1.3430691856273940 7.9999999999999964 35
0.5334291048927413  -6.9757621764514024 58.1585618214671030 1.3379845079334980 8.0000000000000018 36
0.5476832420331847  -7.1145960305213292 59.6205334514717720 1.3332086211756105 8.0000000000000000 37
0.5619386691170877  -7.2460760876457027 61.0414092047846282 1.3287178008286544 8.0000000000000018 38
0.5761959380624687  -7.3706176101914380 62.4201171310165250 1.3244899215118333 8.0000000000000036 39
0.5904555250384268  -7.4886127872096893 63.7559970024802496 1.3205043849651730 7.9999999999999982 40
0.6047178388565709  -7.6004316906699598 65.0487379121239542 1.3167420460216794 8.0000000000000000 41
0.6189832284948770  -7.7064232648998585 66.2983237488521411 1.3131851376285901 8.0000000000000000 42
0.6332519898229998  -7.8069163336349865 67.5049856766234768 1.3098171958066871 8.0000000000000000 43
0.6475243715984370  -7.9022206110464257 68.6691608176190016 1.3066229852883862 8.0000000000000018 44
0.6618005808016952  -7.9926277051243222 69.7914564129693815 1.3035884264430027 7.9999999999999991 45
0.6760807873760725  -8.0784121037663130 70.8726188054203874 1.3007005239803293 8.0000000000000000 46
0.6903651284341960  -8.1598321357853401 71.9135066557563789 1.2979472978206466 8.0000000000000018 47
0.7046537119893175  -8.2371309007669780 72.9150678680312438 1.2953177164295493 8.0000000000000000 48
0.7189466202648378  -8.3105371632456126 73.8783197572070947 1.2928016328383793 8.0000000000000000 49
0.7332439126308207  -8.3802662080179857 74.8043320464610417 1.2903897235045692 8.0000000000000000 50
0.7475456282115369  -8.4465206545713620 75.6942123301585923 1.2880734301097470 8.0000000000000018 51
0.7618517882034790  -8.5094912295765326 76.5490936824204198 1.2858449043458928 7.9999999999999982 52
0.7761623979389051  -8.5693574971969930 77.3701241305401481 1.2836969557002813 8.0000000000000000 53
0.7904774487258815  -8.6262885476088833 78.1584577475217657 1.2816230022173056 7.9999999999999964 54
0.8047969194920128  -8.6804436446301505 78.9152471490236849 1.2796170241888396 8.0000000000000000 55
0.8191207782556307  -8.7319728337389524 79.6416372073512662 1.2776735207035776 7.9999999999999982 56
0.8334489834451321  -8.7810175120393517 80.3387598191899741 1.2757874689692748 8.0000000000000000 57
0.8477814850844201  -8.8277109619219747 81.0077295848417691 1.2739542863090980 8.0000000000000000 58
0.8621182258599938  -8.8721788502856267 81.6496402751511710 1.2721697947240935 8.0000000000000018 59
0.8764591420831213  -8.9145396952451303 82.2655619783790257 1.2704301879072692 8.0000000000000000 60
0.8908041645587064  -8.9549053022639704 82.8565388332851285 1.2687320005908049 7.9999999999999973 61
0.9051532193708755  -8.9933811716273908 83.4235872668658658 1.2670720801057904 8.0000000000000000 62
0.9195062285939626  -9.0300668791220655 83.9676946657890539 1.2654475600335233 7.9999999999999947 63
0.9338631109364118  -9.0650564317190465 84.4898184197817983 1.2638558358283314 8.0000000000000000 64
0.9482237823241344  -9.0984385999735231 84.9908852832300852 1.2622945422938656 8.0000000000000000 65
0.9625881564290242  -9.1302972287639221 85.4717910082152628 1.2607615327977622 7.9999999999999964 66
0.9769561451476326  -9.1607115278962681 85.9334002082643167 1.2592548601130631 8.0000000000000000 67
0.9913276590344046  -9.1897563440021628 86.3765464173598332 1.2577727587788772 7.9999999999999991 68
1.0057026076933784  -9.2175024150616753 86.8020323133496277 1.2563136288772061 8.0000000000000018 69
1.0200809001318301  -9.2440166087877262 87.2106300788914552 1.2548760211275003 7.9999999999999982 70
1.0344624450789688  -9.2693621460177891 87.6030818765649286 1.2534586232054059 8.0000000000000000 71
1.0488471512725117  -9.2935988101720124 87.9801004178265771 1.2520602471970150 8.0000000000000000 72
1.0632349277156727  -9.3167831437558952 88.3423696081551384 1.2506798181049086 8.0000000000000000 73
1.0776256839069056  -9.3389686328091361 88.6905452530621972 1.2493163633271107 7.9999999999999982 74
1.0920193300445267  -9.3602058801320265 89.0252558116896182 1.2479690030348851 8.0000000000000000 75
1.1064157772081866  -9.3805427680548945 89.3471031865031193 1.2466369413799403 8.0000000000000000 76
1.1208149375190095  -9.4000246114564980 89.6566635391648674 1.2453194584661480 8.0000000000000018 77
1.1352167242800761  -9.4186943016814624 89.9544881240432801 1.2440159030251781 8.0000000000000000 78
1.1496210520988277  -9.4365924419566554 90.2411041320293350 1.2427256857396429 8.0000000000000000 79
1.1640278369928432  -9.4537574748598949 90.5170155383904245 1.2414482731612759 7.9999999999999991 80
1.1784369964803532  -9.4702258023523136 90.7827039493252386 1.2401831821754363 8.0000000000000000 81
1.1928484496567628  -9.4860318988471057 91.0386294427011507 1.2389299749667928 8.0000000000000053 82
1.2072621172583700  -9.5012084177522489 91.2852313991725453 1.2376882544443744 8.0000000000000018 83
1.2216779217143898  -9.5157862918929901 91.5229293205112810 1.2364576600873671 8.0000000000000000 84
1.2360957871883205  -9.5297948281902372 91.7521236325257235 1.2352378641759354 7.9999999999999982 85
1.2505156396096204  -9.5432617969448756 91.9731964704325264 1.2340285683741870 7.9999999999999982 86
1.2649374066965988  -9.5562135160532229 92.1865124449629576 1.2328295006349219 8.0000000000000000 87
1.2793610179713575  -9.5686749304568082 92.3924193878534368 1.2316404123982685 7.9999999999999973 88
1.2937864047675727  -9.5806696871092019 92.5912490756893618 1.2304610760585117 7.9999999999999982 89
1.3082135002318398  -9.5922202057237982 92.7833179313478524 1.2292912826755331 8.0000000000000000 90
1.3226422393192583  -9.6033477455493497 92.9689277025242404 1.2281308399091897 7.9999999999999982 91
1.3370725587838830  -9.6140724684042702 93.1483661170350672 1.2269795701567774 8.0000000000000000 92
1.3515043971646197  -9.6244134981858380 93.3219075147648311 1.2258373088753389 8.0000000000000000 93
1.3659376947671000  -9.6343889770572844 93.4898134562775880 1.2247039030721476 8.0000000000000018 94
1.3803723936420289  -9.6440161185030142 93.6523333082412819 1.2235792099480827 8.0000000000000000 95
1.3948084375604552  -9.6533112574307580 93.8097048059220668 1.2224630956799172 8.0000000000000018 96
1.4092457719863871  -9.6622898974885132 93.9621545930951925 1.2213554343287394 7.9999999999999982 97
1.4236843440471265  -9.6709667557544261 94.1098987397959945 1.2202561068628379 8.0000000000000000 98
1.4381241025016767  -9.6793558049481092 94.2531432383934487 1.2191650002843681 8.0000000000000018 99
1.4525649977075366  -9.6874703133033435 94.3920844785204451 1.2180820068500813 7.9999999999999982 100
1.4670069815861753  -9.6953228822340520 94.5269097014325439 1.2170070233772259 8.0000000000000000 101
1.4814500075874433  -9.7029254819176138 94.6577974343961444 1.2159399506265187 8.0000000000000000 102
1.4958940306531647  -9.7102894849125718 94.7849179057312625 1.2148806927548126 8.0000000000000000 103
1.5103390071801190  -9.7174256979211346 94.9084334411460873 1.2138291568307280 8.0000000000000000 104
1.5247848949826077  -9.7243443918004733 95.0284988420118566 1.2127852524071279 8.0000000000000018 105
1.5392316532547814  -9.7310553299209506 95.1452617462293802 1.2117488911448624 8.0000000000000000 106
1.5536792425328745  -9.7375677949639368 95.2588629723389602 1.2107199864827187 7.9999999999999991 107
1.5681276246574936  -9.7438906142465171 95.3694368475200633 1.2096984533489543 8.0000000000000000 108
1.5825767627360776  -9.7500321836554935 95.4771115201218379 1.2086842079102345 7.9999999999999991 109
1.5970266211056356  -9.7560004902686330 95.5820092573545708 1.2076771673541700 8.0000000000000000 110
1.6114771652958617  -9.7618031337363469 95.6842467287600584 1.2066772497019853 7.9999999999999991 111
1.6259283619927041  -9.7674473464933307 95.7839352760663303 1.2056843736482004 8.0000000000000000 112
1.6403801790024648  -9.7729400128653996 95.8811811700160632 1.2046984584244644 7.9999999999999982 113
1.6548325852164885  -9.7782876871333606 95.9760858547424789 1.2037194236849793 7.9999999999999991 114
1.6692855505764932  -9.7834966106121044 96.0687461802490077 1.2027471894111592 7.9999999999999991 115
1.6837390460405870  -9.7885727277999948 96.1592546235319219 1.2017816758334268 8.0000000000000000 116
1.6981930435500097  -9.7935217016503966 96.2476994988664103 1.2008228033682216 8.0000000000000000 117
1.7126475159966248  -9.7983489280143878 96.3341651577591165 1.1998704925684929 8.0000000000000000 118
1.7271024371911885  -9.8030595493008619 96.4187321790504654 1.1989246640861086 7.9999999999999973 119
1.7415577818324139  -9.8076584673976903 96.5014775496334636 1.1979852386447751 8.0000000000000000 120
1.7560135254768423  -9.8121503558950920 96.5824748362352921 1.1970521370221778 8.0000000000000000 121
1.7704696445095303  -9.8165396716501441 96.6617943486923537 1.1961252800402131 8.0000000000000036 122
1.7849261161155596  -9.8208306657290549 96.7395032951286993 1.1952045885622491 8.0000000000000018 123
1.7993829182523695  -9.8250273937618751 96.8156659294338056 1.1942899834965126 8.0000000000000000 124
1.8138400296229078  -9.8291337257422349 96.8903436914153247 1.1933813858047337 8.0000000000000000 125
1.8282974296496022  -9.8331533553030503 96.9635953399881316 1.1924787165153159 7.9999999999999982 126
1.8427550984491390  -9.8370898084971650 97.0354770797436572 1.1915818967403486 8.0000000000000000 127
1.8572130168080434  -9.8409464521104386 97.1060426812285300 1.1906908476958518 8.0000000000000036 128
1.8716711661590502  -9.8447265015332288 97.1753435952460336 1.1898054907247197 8.0000000000000000 129
1.8861295285582507  -9.8484330282145898 97.2434290614793468 1.1889257473218742 7.9999999999999991 130
1.9005880866630089  -9.8520689667223458 97.3103462117210540 1.1880515391611959 7.9999999999999973 131
1.9150468237106213  -9.8556371214307621 97.3761401679811058 1.1871827881238486 8.0000000000000036 132
1.9295057234977151  -9.8591401728562893 97.4408541357304756 1.1863194163276560 8.0000000000000000 133
1.9439647703603631  -9.8625806836609513 97.5045294925278512 1.1854613461572390 7.9999999999999973 134
1.9584239491548998  -9.8659611043413626 97.5672058722606721 1.1846085002946181 7.9999999999999982 135
1.9728832452394198  -9.8692837786208436 97.6289212452251434 1.1837608017500747 7.9999999999999973 136
1.9873426444559452  -9.8725509485608729 97.6897119942554184 1.1829181738930532 8.0000000000000000 137
2.0018021331132361  -9.8757647594071578 97.7496129871024380 1.1820805404829096 8.0000000000000036 138
2.0162616979702355  -9.8789272641848882 97.8086576452536463 1.1812478256993733 8.0000000000000000 139
2.0307213262201209  -9.8820404280568752 97.8668780093746875 1.1804199541725662 8.0000000000000018 140
2.0451810054749551  -9.8851061324573344 97.9243048015445368 1.1795968510124628 8.0000000000000000 141
2.0596407237509058  -9.8881261790137174 97.9809674844475751 1.1787784418376990 7.9999999999999982 142
2.0741004694540250  -9.8911022932679131 98.0368943176780192 1.1779646528036383 8.0000000000000000 143
2.0885602313665723  -9.8940361282077234 98.0921124113024518 1.1771554106296163 8.0000000000000000 144
2.1030199986338496  -9.8969292676189404 98.1466477768215526 1.1763506426253183 8.0000000000000000 145
2.1174797607515492  -9.8997832292675607 98.2005253756620675 1.1755502767162260 8.0000000000000018 146
2.1319395075535890  -9.9025994679213305 98.2537691653250249 1.1747542414681029 8.0000000000000000 147
2.1463992292004095  -9.9053793782193154 98.3064021433094126 1.1739624661104837 7.9999999999999982 148
2.1608589161677378  -9.9081242973974923 98.3584463889242215 1.1731748805591502 8.0000000000000036 149
2.1753185592357793  -9.9108355078781223 98.4099231030948971 1.1723914154375596 8.0000000000000000 150
2.1897781494788391  -9.9135142397302225 98.4608526462680516 1.1716120020972522 8.0000000000000018 151
2.2042376782553479  -9.9161616730078528 98.5112545745078307 1.1708365726371845 8.0000000000000000 152
2.2186971371982787  -9.9187789399728281 98.5611476738776560 1.1700650599220344 8.0000000000000000 153
2.2331565182059494  -9.9213671272078656 98.6105499931923930 1.1692973975994492 8.0000000000000000 154
2.2476158134331792  -9.9239272776260101 98.6594788752236127 1.1685335201162634 8.0000000000000000 155
2.2620750152828033  -9.9264603923817916 98.7079509864357618 1.1677733627336888 8.0000000000000000 156
2.2765341163975235  -9.9289674326892268 98.7559823453271122 1.1670168615414929 7.9999999999999991 157
2.2909931096520819  -9.9314493215515860 98.8035883494445528 1.1662639534711845 8.0000000000000018 158
2.3054519881457454  -9.9339069454075180 98.8507838011398974 1.1655145763082155 8.0000000000000018 159
2.3199107451950960  -9.9363411556978605 98.8975829321295237 1.1647686687032326 7.9999999999999991 160
2.3343693743271032  -9.9387527703573291 98.9439994269178555 1.1640261701823889 7.9999999999999982 161
2.3488278692724784  -9.9411425752348457 98.9900464451398392 1.1632870211567385 8.0000000000000018 162
2.3632862239592933  -9.9435113254463197 99.0357366428776942 1.1625511629307443 7.9999999999999982 163
2.3777444325068537  -9.9458597466633094 99.0810821930019046 1.1618185377099217 7.9999999999999982 164
2.3922024892198235  -9.9481885363407958 99.1260948045842554 1.1610890886076317 7.9999999999999982 165
2.4066603885825786  -9.9504983648872951 99.1707857414296683 1.1603627596510655 8.0000000000000000 166
2.4211181252537903  -9.9527898767801535 99.2151658397693694 1.1596394957864309 8.0000000000000036 167
2.4355756940612290  -9.9550636916288617 99.2592455251572403 1.1589192428833752 7.9999999999999973 168
2.4500330899967713  -9.9573204051890798 99.3030348286074798 1.1582019477386738 8.0000000000000000 169
2.4644903082116114  -9.9595605903296711 99.3465434020115055 1.1574875580791868 8.0000000000000000 170
2.4789473440116621  -9.9617847979553726 99.3897805328687696 1.1567760225641441 8.0000000000000000 171
2.4934041928531445  -9.9639935578871501 99.4327551583647562 1.1560672907867524 7.9999999999999991 172
2.5078608503383455  -9.9661873797024025 99.4754758788283198 1.1553613132751706 7.9999999999999964 173
2.5223173122115572  -9.9683667535370724 99.5179509705975960 1.1546580414928624 8.0000000000000000 174
2.5367735743551676  -9.9705321508514437 99.5601883983234757 1.1539574278383604 8.0000000000000000 175
2.5512296327859145  -9.9726840251615982 99.6021958267380114 1.1532594256444650 7.9999999999999991 176
2.5656854836512832  -9.9748228127380720 99.6439806319126404 1.1525639891768940 8.0000000000000036 177
2.5801411232260545  -9.9769489332734018 99.6855499120311492 1.1518710736324100 8.0000000000000000 178
2.5945965479089814  -9.9790627905200999 99.7269104977004019 1.1511806351364524 8.0000000000000000 179
2.6090517542196023  -9.9811647729004811 99.7680689618211431 1.1504926307402865 8.0000000000000018 180
2.6235067387951818  -9.9832552540897055 99.8090316290385573 1.1498070184176956 8.0000000000000000 181
2.6379614983877646  -9.9853345935734072 99.8498045847945548 1.1491237570612411 8.0000000000000000 182
2.6524160298613548  -9.9874031371810421 99.8903936839984254 1.1484428064781000 7.9999999999999964 183
2.6668703301891949  -9.9894612175962330 99.9308045593349732 1.1477641273855097 8.0000000000000000 184
2.6813243964511613  -9.9915091548451187 99.9710426292270284 1.1470876814058288 8.0000000000000018 185
2.6957782258312526  -9.9935472567638755 100.0111131054682687 1.1464134310612457 7.9999999999999982 186
2.7102318156151783  -9.9955758194463264 100.0510210005421641 1.1457413397681406 7.9999999999999973 187
2.7246851631880422  -9.9975951276726001 100.0907711346404909 1.1450713718311205 7.9999999999999982 188
2.7391382660321106  -9.9996054553197631 100.1303681423970602 1.1444034924367488 8.0000000000000018 189
2.7535911217246682  -10.0016070657552767 100.1698164793480714 1.1437376676469788 8.0000000000000000 190
2.7680437279359529  -10.0036002122141170 100.2091204281335592 1.1430738643923202 8.0000000000000036 191
2.7824960824271692  -10.0055851381602210 100.2482841044494108 1.1424120504647266 7.9999999999999982 192
2.7969481830485781  -10.0075620776331853 100.2873114627643076 1.1417521945102558 8.0000000000000018 193
2.8114000277376539  -10.0095312555806437 100.3262063018092647 1.1410942660214769 8.0000000000000000 194
2.8258516145173096  -10.0114928881772940 100.3649722698527711 1.1404382353296736 8.0000000000000000 195
2.8403029414941909  -10.0134471831309462 100.4036128697695602 1.1397840735968301 8.0000000000000000 196
