 # inv_tmp, energy, phys_var, phys_doublon, phys_num, step_i
0.007545  38.934755 1656.106430 3.919346 16.000000 1
0.015031  37.879417 1574.258246 3.839389 16.000000 2
0.022458  36.834442 1495.237510 3.760198 16.000000 3
0.029829  35.800910 1419.066184 3.681843 16.000000 4
0.037144  34.779815 1345.752316 3.604388 16.000000 5
0.044407  33.772065 1275.291044 3.527892 16.000000 6
0.051618  32.778479 1207.665656 3.452408 16.000000 7
0.058780  31.799795 1142.848678 3.377982 16.000000 8
0.065895  30.836663 1080.802971 3.304657 16.000000 9
0.072963  29.889658 1021.482819 3.232470 16.000000 10
0.079988  28.959273 964.834995 3.161451 16.000000 11
0.086971  28.045931 910.799788 3.091628 16.000000 12
0.093914  27.149984 859.311982 3.023023 16.000000 13
0.100818  26.271716 810.301783 2.955654 16.000000 14
0.107686  25.411349 763.695685 2.889536 16.000000 15
0.114518  24.569049 719.417274 2.824678 16.000000 16
0.121318  23.744925 677.387963 2.761088 16.000000 17
0.128086  22.939037 637.527664 2.698769 16.000000 18
0.134824  22.151397 599.755400 2.637722 16.000000 19
0.141534  21.381976 563.989843 2.577945 16.000000 20
0.148216  20.630705 530.149801 2.519435 16.000000 21
0.154874  19.897479 498.154640 2.462183 16.000000 22
0.161507  19.182162 467.924659 2.406182 16.000000 23
0.168117  18.484586 439.381403 2.351420 16.000000 24
0.174706  17.804561 412.447940 2.297885 16.000000 25
0.181274  17.141871 387.049084 2.245564 16.000000 26
0.187824  16.496279 363.111587 2.194442 16.000000 27
0.194355  15.867530 340.564288 2.144501 16.000000 28
0.200870  15.255353 319.338230 2.095724 16.000000 29
0.207368  14.659465 299.366751 2.048093 16.000000 30
0.213852  14.079567 280.585544 2.001588 16.000000 31
0.220321  13.515353 262.932701 1.956190 16.000000 32
0.226778  12.966506 246.348724 1.911877 16.000000 33
0.233222  12.432704 230.776533 1.868629 16.000000 34
0.239655  11.913620 216.161448 1.826423 16.000000 35
0.246077  11.408920 202.451160 1.785238 16.000000 36
0.252489  10.918269 189.595698 1.745051 16.000000 37
0.258892  10.441331 177.547374 1.705840 16.000000 38
0.265286  9.977769 166.260734 1.667582 16.000000 39
0.271672  9.527247 155.692494 1.630255 16.000000 40
0.278050  9.089430 145.801475 1.593836 16.000000 41
0.284422  8.663989 136.548532 1.558304 16.000000 42
0.290787  8.250595 127.896488 1.523635 16.000000 43
0.297146  7.848926 119.810055 1.489809 16.000000 44
0.303499  7.458667 112.255766 1.456803 16.000000 45
0.309847  7.079507 105.201897 1.424598 16.000000 46
0.316191  6.711144 98.618398 1.393174 16.000000 47
0.322530  6.353283 92.476819 1.362509 16.000000 48
0.328865  6.005638 86.750240 1.332587 16.000000 49
0.335197  5.667931 81.413201 1.303388 16.000000 50
0.341525  5.339893 76.441639 1.274895 16.000000 51
0.347851  5.021266 71.812818 1.247092 16.000000 52
0.354174  4.711800 67.505268 1.219962 16.000000 53
0.360494  4.411254 63.498725 1.193491 16.000000 54
0.366813  4.119399 59.774071 1.167665 16.000000 55
0.373129  3.836011 56.313280 1.142470 16.000000 56
0.379445  3.560878 53.099362 1.117894 16.000000 57
0.385759  3.293797 50.116310 1.093924 16.000000 58
0.392072  3.034570 47.349054 1.070551 16.000000 59
0.398384  2.783009 44.783410 1.047762 16.000000 60
0.404696  2.538935 42.406034 1.025549 16.000000 61
0.411007  2.302171 40.204384 1.003902 16.000000 62
0.417319  2.072549 38.166670 0.982812 16.000000 63
0.423631  1.849908 36.281821 0.962272 16.000000 64
0.429943  1.634088 34.539444 0.942272 16.000000 65
0.436255  1.424938 32.929786 0.922806 16.000000 66
0.442569  1.222307 31.443705 0.903865 16.000000 67
0.448883  1.026049 30.072629 0.885444 16.000000 68
0.455199  0.836023 28.808531 0.867534 16.000000 69
0.461516  0.652086 27.643896 0.850129 16.000000 70
0.467835  0.474102 26.571693 0.833222 16.000000 71
0.474155  0.301933 25.585345 0.816805 16.000000 72
0.480477  0.135445 24.678708 0.800873 16.000000 73
0.486801  -0.025496 23.846042 0.785418 16.000000 74
0.493127  -0.181024 23.081987 0.770432 16.000000 75
0.499456  -0.331269 22.381545 0.755910 16.000000 76
0.505786  -0.476363 21.740052 0.741842 16.000000 77
0.512119  -0.616437 21.153165 0.728222 16.000000 78
0.518455  -0.751619 20.616835 0.715041 16.000000 79
0.524793  -0.882040 20.127296 0.702293 16.000000 80
0.531134  -1.007827 19.681042 0.689968 16.000000 81
0.537477  -1.129109 19.274812 0.678060 16.000000 82
0.543824  -1.246013 18.905577 0.666558 16.000000 83
0.550173  -1.358664 18.570521 0.655456 16.000000 84
0.556525  -1.467188 18.267032 0.644743 16.000000 85
0.562879  -1.571709 17.992682 0.634412 16.000000 86
0.569237  -1.672351 17.745224 0.624453 16.000000 87
0.575597  -1.769233 17.522569 0.614858 16.000000 88
0.581961  -1.862477 17.322784 0.605617 16.000000 89
0.588327  -1.952201 17.144079 0.596722 16.000000 90
0.594696  -2.038522 16.984794 0.588163 16.000000 91
0.601068  -2.121555 16.843396 0.579931 16.000000 92
0.607443  -2.201412 16.718463 0.572017 16.000000 93
0.613821  -2.278205 16.608682 0.564412 16.000000 94
0.620202  -2.352043 16.512839 0.557108 16.000000 95
0.626585  -2.423030 16.429812 0.550094 16.000000 96
0.632971  -2.491273 16.358564 0.543362 16.000000 97
0.639359  -2.556872 16.298138 0.536904 16.000000 98
0.645751  -2.619927 16.247651 0.530710 16.000000 99
0.652144  -2.680533 16.206286 0.524772 16.000000 100
0.658541  -2.738787 16.173291 0.519082 16.000000 101
0.664940  -2.794778 16.147974 0.513631 16.000000 102
0.671341  -2.848596 16.129693 0.508412 16.000000 103
0.677744  -2.900327 16.117859 0.503415 16.000000 104
0.684150  -2.950054 16.111929 0.498634 16.000000 105
0.690559  -2.997859 16.111402 0.494061 16.000000 106
0.696969  -3.043820 16.115818 0.489688 16.000000 107
0.703381  -3.088012 16.124753 0.485508 16.000000 108
0.709796  -3.130510 16.137815 0.481514 16.000000 109
0.716213  -3.171383 16.154646 0.477700 16.000000 110
0.722631  -3.210700 16.174915 0.474057 16.000000 111
0.729052  -3.248526 16.198318 0.470580 16.000000 112
0.735474  -3.284925 16.224576 0.467263 16.000000 113
0.741898  -3.319958 16.253432 0.464099 16.000000 114
0.748324  -3.353683 16.284650 0.461082 16.000000 115
0.754751  -3.386156 16.318015 0.458208 16.000000 116
0.761180  -3.417433 16.353326 0.455469 16.000000 117
0.767611  -3.447564 16.390402 0.452861 16.000000 118
0.774043  -3.476600 16.429075 0.450378 16.000000 119
0.780476  -3.504589 16.469191 0.448016 16.000000 120
0.786911  -3.531577 16.510610 0.445770 16.000000 121
0.793347  -3.557607 16.553202 0.443635 16.000000 122
0.799785  -3.582723 16.596851 0.441606 16.000000 123
0.806224  -3.606964 16.641446 0.439679 16.000000 124
0.812664  -3.630370 16.686890 0.437851 16.000000 125
0.819105  -3.652977 16.733091 0.436116 16.000000 126
0.825547  -3.674821 16.779968 0.434471 16.000000 127
0.831990  -3.695936 16.827444 0.432913 16.000000 128
0.838434  -3.716354 16.875450 0.431438 16.000000 129
0.844880  -3.736107 16.923923 0.430042 16.000000 130
0.851326  -3.755224 16.972807 0.428721 16.000000 131
0.857773  -3.773734 17.022047 0.427474 16.000000 132
0.864221  -3.791664 17.071598 0.426297 16.000000 133
0.870670  -3.809040 17.121415 0.425186 16.000000 134
0.877119  -3.825886 17.171459 0.424140 16.000000 135
0.883569  -3.842227 17.221695 0.423155 16.000000 136
0.890020  -3.858084 17.272089 0.422229 16.000000 137
0.896472  -3.873480 17.322614 0.421359 16.000000 138
0.902924  -3.888436 17.373241 0.420543 16.000000 139
0.909377  -3.902970 17.423947 0.419779 16.000000 140
0.915831  -3.917102 17.474711 0.419064 16.000000 141
0.922285  -3.930850 17.525512 0.418397 16.000000 142
0.928740  -3.944230 17.576334 0.417775 16.000000 143
0.935195  -3.957260 17.627162 0.417197 16.000000 144
0.941650  -3.969954 17.677979 0.416660 16.000000 145
0.948106  -3.982328 17.728776 0.416163 16.000000 146
0.954563  -3.994395 17.779539 0.415704 16.000000 147
0.961020  -4.006171 17.830260 0.415281 16.000000 148
0.967477  -4.017666 17.880930 0.414894 16.000000 149
0.973935  -4.028894 17.931541 0.414540 16.000000 150
0.980393  -4.039867 17.982086 0.414218 16.000000 151
0.986851  -4.050595 18.032560 0.413927 16.000000 152
0.993309  -4.061090 18.082958 0.413665 16.000000 153
0.999768  -4.071361 18.133275 0.413431 16.000000 154
1.006228  -4.081419 18.183507 0.413224 16.000000 155
1.012687  -4.091272 18.233653 0.413044 16.000000 156
1.019147  -4.100930 18.283709 0.412887 16.000000 157
1.025606  -4.110401 18.333673 0.412755 16.000000 158
1.032066  -4.119694 18.383543 0.412644 16.000000 159
1.038527  -4.128815 18.433319 0.412556 16.000000 160
1.044987  -4.137773 18.483000 0.412488 16.000000 161
1.051448  -4.146573 18.532585 0.412441 16.000000 162
1.057908  -4.155224 18.582075 0.412412 16.000000 163
1.064369  -4.163731 18.631468 0.412401 16.000000 164
1.070830  -4.172101 18.680765 0.412408 16.000000 165
1.077291  -4.180339 18.729968 0.412431 16.000000 166
1.083752  -4.188451 18.779076 0.412471 16.000000 167
1.090214  -4.196443 18.828090 0.412525 16.000000 168
1.096675  -4.204318 18.877012 0.412595 16.000000 169
1.103137  -4.212083 18.925842 0.412678 16.000000 170
1.109598  -4.219741 18.974582 0.412774 16.000000 171
1.116059  -4.227297 19.023232 0.412884 16.000000 172
1.122521  -4.234756 19.071795 0.413006 16.000000 173
1.128983  -4.242121 19.120272 0.413139 16.000000 174
1.135444  -4.249397 19.168663 0.413284 16.000000 175
1.141906  -4.256586 19.216971 0.413439 16.000000 176
1.148367  -4.263693 19.265198 0.413605 16.000000 177
1.154829  -4.270720 19.313344 0.413780 16.000000 178
1.161291  -4.277671 19.361411 0.413965 16.000000 179
1.167752  -4.284549 19.409401 0.414159 16.000000 180
1.174214  -4.291357 19.457316 0.414361 16.000000 181
1.180675  -4.298098 19.505157 0.414572 16.000000 182
1.187137  -4.304773 19.552926 0.414791 16.000000 183
1.193598  -4.311387 19.600624 0.415017 16.000000 184
1.200060  -4.317941 19.648252 0.415250 16.000000 185
1.206521  -4.324437 19.695813 0.415490 16.000000 186
1.212983  -4.330878 19.743309 0.415737 16.000000 187
1.219444  -4.337266 19.790739 0.415990 16.000000 188
1.225905  -4.343603 19.838107 0.416249 16.000000 189
1.232366  -4.349890 19.885412 0.416514 16.000000 190
1.238827  -4.356131 19.932658 0.416785 16.000000 191
1.245288  -4.362325 19.979845 0.417060 16.000000 192
1.251749  -4.368476 20.026974 0.417341 16.000000 193
1.258210  -4.374584 20.074047 0.417626 16.000000 194
1.264671  -4.380651 20.121065 0.417916 16.000000 195
1.271131  -4.386679 20.168030 0.418210 16.000000 196
1.277592  -4.392669 20.214942 0.418509 16.000000 197
1.284052  -4.398623 20.261803 0.418811 16.000000 198
1.290513  -4.404541 20.308613 0.419117 16.000000 199
1.296973  -4.410425 20.355375 0.419427 16.000000 200
1.303433  -4.416276 20.402089 0.419740 16.000000 201
1.309893  -4.422096 20.448756 0.420057 16.000000 202
1.316353  -4.427884 20.495377 0.420376 16.000000 203
1.322813  -4.433643 20.541953 0.420699 16.000000 204
1.329273  -4.439373 20.588486 0.421024 16.000000 205
1.335732  -4.445075 20.634975 0.421352 16.000000 206
1.342192  -4.450751 20.681421 0.421683 16.000000 207
1.348651  -4.456400 20.727826 0.422016 16.000000 208
1.355110  -4.462024 20.774191 0.422351 16.000000 209
1.361569  -4.467623 20.820515 0.422689 16.000000 210
1.368028  -4.473199 20.866801 0.423028 16.000000 211
1.374487  -4.478751 20.913047 0.423370 16.000000 212
1.380946  -4.484282 20.959256 0.423713 16.000000 213
1.387404  -4.489790 21.005427 0.424058 16.000000 214
1.393863  -4.495278 21.051562 0.424405 16.000000 215
1.400321  -4.500745 21.097660 0.424753 16.000000 216
1.406779  -4.506192 21.143723 0.425103 16.000000 217
1.413237  -4.511619 21.189751 0.425455 16.000000 218
1.419695  -4.517028 21.235743 0.425807 16.000000 219
1.426152  -4.522418 21.281702 0.426161 16.000000 220
1.432610  -4.527791 21.327626 0.426516 16.000000 221
1.439067  -4.533146 21.373517 0.426872 16.000000 222
1.445525  -4.538483 21.419375 0.427229 16.000000 223
1.451982  -4.543805 21.465200 0.427587 16.000000 224
1.458439  -4.549110 21.510992 0.427946 16.000000 225
1.464896  -4.554399 21.556752 0.428306 16.000000 226
1.471352  -4.559673 21.602480 0.428666 16.000000 227
1.477809  -4.564931 21.648176 0.429027 16.000000 228
1.484265  -4.570175 21.693840 0.429389 16.000000 229
1.490722  -4.575404 21.739473 0.429751 16.000000 230
1.497178  -4.580619 21.785075 0.430114 16.000000 231
1.503634  -4.585820 21.830645 0.430478 16.000000 232
1.510089  -4.591008 21.876185 0.430842 16.000000 233
1.516545  -4.596182 21.921693 0.431206 16.000000 234
1.523001  -4.601342 21.967171 0.431571 16.000000 235
1.529456  -4.606490 22.012617 0.431936 16.000000 236
1.535911  -4.611625 22.058033 0.432301 16.000000 237
1.542366  -4.616748 22.103419 0.432666 16.000000 238
1.548821  -4.621859 22.148773 0.433032 16.000000 239
1.555276  -4.626957 22.194097 0.433398 16.000000 240
1.561730  -4.632043 22.239390 0.433764 16.000000 241
1.568185  -4.637118 22.284652 0.434130 16.000000 242
1.574639  -4.642181 22.329883 0.434496 16.000000 243
1.581093  -4.647233 22.375084 0.434862 16.000000 244
1.587547  -4.652274 22.420253 0.435228 16.000000 245
1.594001  -4.657303 22.465391 0.435594 16.000000 246
1.600454  -4.662322 22.510498 0.435960 16.000000 247
1.606908  -4.667329 22.555574 0.436326 16.000000 248
1.613361  -4.672326 22.600618 0.436692 16.000000 249
1.619815  -4.677313 22.645631 0.437057 16.000000 250
1.626268  -4.682289 22.690611 0.437423 16.000000 251
1.632720  -4.687254 22.735560 0.437788 16.000000 252
1.639173  -4.692209 22.780477 0.438153 16.000000 253
1.645626  -4.697155 22.825361 0.438518 16.000000 254
1.652078  -4.702090 22.870212 0.438883 16.000000 255
1.658531  -4.707015 22.915031 0.439247 16.000000 256
1.664983  -4.711930 22.959817 0.439611 16.000000 257
1.671435  -4.716835 23.004570 0.439975 16.000000 258
1.677886  -4.721730 23.049290 0.440338 16.000000 259
1.684338  -4.726616 23.093975 0.440701 16.000000 260
1.690790  -4.731492 23.138627 0.441064 16.000000 261
1.697241  -4.736359 23.183244 0.441426 16.000000 262
1.703692  -4.741216 23.227828 0.441788 16.000000 263
1.710143  -4.746064 23.272376 0.442150 16.000000 264
1.716594  -4.750902 23.316889 0.442511 16.000000 265
1.723045  -4.755731 23.361367 0.442871 16.000000 266
1.729496  -4.760550 23.405810 0.443232 16.000000 267
1.735946  -4.765361 23.450216 0.443591 16.000000 268
1.742396  -4.770162 23.494587 0.443951 16.000000 269
1.748847  -4.774954 23.538921 0.444309 16.000000 270
1.755297  -4.779736 23.583218 0.444668 16.000000 271
1.761746  -4.784510 23.627477 0.445025 16.000000 272
1.768196  -4.789274 23.671700 0.445382 16.000000 273
1.774646  -4.794030 23.715884 0.445739 16.000000 274
1.781095  -4.798776 23.760031 0.446095 16.000000 275
1.787544  -4.803513 23.804139 0.446451 16.000000 276
1.793994  -4.808241 23.848208 0.446806 16.000000 277
1.800443  -4.812961 23.892238 0.447160 16.000000 278
1.806891  -4.817671 23.936228 0.447514 16.000000 279
1.813340  -4.822372 23.980179 0.447867 16.000000 280
1.819789  -4.827065 24.024089 0.448220 16.000000 281
1.826237  -4.831748 24.067959 0.448572 16.000000 282
1.832685  -4.836423 24.111788 0.448923 16.000000 283
1.839134  -4.841088 24.155575 0.449274 16.000000 284
1.845582  -4.845745 24.199321 0.449624 16.000000 285
1.852029  -4.850393 24.243025 0.449973 16.000000 286
1.858477  -4.855032 24.286686 0.450322 16.000000 287
1.864925  -4.859662 24.330305 0.450670 16.000000 288
1.871372  -4.864283 24.373880 0.451017 16.000000 289
1.877819  -4.868895 24.417412 0.451364 16.000000 290
1.884267  -4.873499 24.460900 0.451710 16.000000 291
1.890714  -4.878093 24.504343 0.452056 16.000000 292
1.897160  -4.882679 24.547742 0.452400 16.000000 293
1.903607  -4.887256 24.591096 0.452745 16.000000 294
1.910054  -4.891824 24.634404 0.453088 16.000000 295
1.916500  -4.896383 24.677667 0.453430 16.000000 296
1.922947  -4.900933 24.720883 0.453772 16.000000 297
1.929393  -4.905474 24.764053 0.454114 16.000000 298
1.935839  -4.910006 24.807175 0.454454 16.000000 299
1.942285  -4.914530 24.850251 0.454794 16.000000 300
1.948731  -4.919044 24.893278 0.455133 16.000000 301
1.955176  -4.923550 24.936258 0.455471 16.000000 302
1.961622  -4.928047 24.979188 0.455809 16.000000 303
1.968067  -4.932535 25.022070 0.456146 16.000000 304
1.974513  -4.937013 25.064903 0.456482 16.000000 305
1.980958  -4.941483 25.107686 0.456817 16.000000 306
1.987403  -4.945944 25.150419 0.457152 16.000000 307
1.993848  -4.950396 25.193101 0.457485 16.000000 308
2.000292  -4.954839 25.235732 0.457818 16.000000 309
2.006737  -4.959273 25.278313 0.458151 16.000000 310
2.013181  -4.963698 25.320841 0.458482 16.000000 311
2.019626  -4.968114 25.363318 0.458813 16.000000 312
2.026070  -4.972521 25.405742 0.459143 16.000000 313
2.032514  -4.976919 25.448113 0.459472 16.000000 314
2.038958  -4.981308 25.490431 0.459801 16.000000 315
2.045402  -4.985688 25.532696 0.460128 16.000000 316
2.051846  -4.990059 25.574907 0.460455 16.000000 317
2.058290  -4.994421 25.617063 0.460781 16.000000 318
2.064733  -4.998773 25.659165 0.461107 16.000000 319
2.071177  -5.003117 25.701212 0.461431 16.000000 320
2.077620  -5.007451 25.743203 0.461755 16.000000 321
2.084063  -5.011777 25.785139 0.462078 16.000000 322
2.090506  -5.016093 25.827018 0.462400 16.000000 323
2.096949  -5.020400 25.868841 0.462721 16.000000 324
2.103392  -5.024698 25.910607 0.463042 16.000000 325
2.109834  -5.028987 25.952316 0.463361 16.000000 326
2.116277  -5.033266 25.993967 0.463680 16.000000 327
2.122719  -5.037537 26.035560 0.463998 16.000000 328
2.129162  -5.041798 26.077095 0.464316 16.000000 329
2.135604  -5.046050 26.118571 0.464632 16.000000 330
2.142046  -5.050292 26.159988 0.464948 16.000000 331
2.148488  -5.054526 26.201346 0.465263 16.000000 332
2.154930  -5.058750 26.242644 0.465577 16.000000 333
2.161372  -5.062965 26.283881 0.465890 16.000000 334
2.167814  -5.067171 26.325059 0.466202 16.000000 335
2.174255  -5.071367 26.366175 0.466514 16.000000 336
2.180697  -5.075554 26.407230 0.466825 16.000000 337
2.187138  -5.079732 26.448224 0.467135 16.000000 338
2.193579  -5.083900 26.489156 0.467444 16.000000 339
2.200020  -5.088059 26.530026 0.467752 16.000000 340
2.206461  -5.092209 26.570833 0.468060 16.000000 341
2.212902  -5.096349 26.611578 0.468366 16.000000 342
2.219343  -5.100480 26.652259 0.468672 16.000000 343
2.225784  -5.104602 26.692877 0.468977 16.000000 344
2.232224  -5.108714 26.733431 0.469282 16.000000 345
2.238665  -5.112817 26.773921 0.469585 16.000000 346
2.245105  -5.116910 26.814347 0.469887 16.000000 347
2.251546  -5.120994 26.854708 0.470189 16.000000 348
2.257986  -5.125069 26.895003 0.470490 16.000000 349
2.264426  -5.129134 26.935234 0.470790 16.000000 350
2.270866  -5.133190 26.975399 0.471089 16.000000 351
2.277306  -5.137236 27.015497 0.471388 16.000000 352
2.283746  -5.141272 27.055530 0.471685 16.000000 353
2.290185  -5.145300 27.095496 0.471982 16.000000 354
2.296625  -5.149317 27.135395 0.472278 16.000000 355
2.303064  -5.153325 27.175226 0.472573 16.000000 356
2.309504  -5.157324 27.214991 0.472867 16.000000 357
2.315943  -5.161313 27.254687 0.473161 16.000000 358
2.322382  -5.165293 27.294316 0.473453 16.000000 359
2.328821  -5.169263 27.333876 0.473745 16.000000 360
2.335260  -5.173223 27.373368 0.474036 16.000000 361
2.341699  -5.177174 27.412791 0.474326 16.000000 362
2.348138  -5.181115 27.452145 0.474615 16.000000 363
2.354577  -5.185047 27.491429 0.474904 16.000000 364
2.361016  -5.188969 27.530644 0.475191 16.000000 365
2.367454  -5.192882 27.569788 0.475478 16.000000 366
2.373893  -5.196785 27.608863 0.475764 16.000000 367
2.380331  -5.200679 27.647867 0.476049 16.000000 368
2.386769  -5.204562 27.686801 0.476333 16.000000 369
2.393208  -5.208437 27.725663 0.476617 16.000000 370
2.399646  -5.212301 27.764455 0.476899 16.000000 371
2.406084  -5.216156 27.803175 0.477181 16.000000 372
2.412522  -5.220001 27.841823 0.477462 16.000000 373
2.418960  -5.223837 27.880400 0.477742 16.000000 374
2.425397  -5.227663 27.918904 0.478021 16.000000 375
2.431835  -5.231480 27.957336 0.478300 16.000000 376
2.438273  -5.235286 27.995695 0.478577 16.000000 377
