 # inv_tmp, energy, phys_var, phys_doublon, phys_num, step_i
0.120047  -0.660169 3.617015 0.000000 16.000000 1
0.234719  -1.041668 4.316464 0.000000 16.000000 2
0.344442  -1.419475 5.260463 0.000000 16.000000 3
0.449695  -1.789828 6.430097 0.000000 16.000000 4
0.550978  -2.149557 7.796640 0.000000 16.000000 5
0.648794  -2.495854 9.323698 0.000000 16.000000 6
0.743646  -2.826161 10.969800 0.000000 16.000000 7
0.836025  -3.138195 12.691465 0.000000 16.000000 8
0.926398  -3.430095 14.446516 0.000000 16.000000 9
1.015197  -3.700605 16.197181 0.000000 16.000000 10
1.102802  -3.949191 17.912435 0.000000 16.000000 11
1.189528  -4.176069 19.569244 0.000000 16.000000 12
1.275627  -4.382132 21.152671 0.000000 16.000000 13
1.361285  -4.568794 22.655053 0.000000 16.000000 14
1.446633  -4.737812 24.074620 0.000000 16.000000 15
1.531752  -4.891112 25.413913 0.000000 16.000000 16
1.616689  -5.030642 26.678272 0.000000 16.000000 17
1.701463  -5.158258 27.874556 0.000000 16.000000 18
1.786079  -5.275659 29.010153 0.000000 16.000000 19
1.870527  -5.384349 30.092279 0.000000 16.000000 20
1.954796  -5.485617 31.127516 0.000000 16.000000 21
2.038874  -5.580543 32.121552 0.000000 16.000000 22
2.122749  -5.670014 33.079063 0.000000 16.000000 23
2.206416  -5.754736 34.003689 0.000000 16.000000 24
2.289874  -5.835264 34.898092 0.000000 16.000000 25
2.373127  -5.912017 35.764050 0.000000 16.000000 26
2.456186  -5.985307 36.602582 0.000000 16.000000 27
2.539066  -6.055355 37.414084 0.000000 16.000000 28
2.621787  -6.122314 38.198475 0.000000 16.000000 29
2.704374  -6.186284 38.955333 0.000000 16.000000 30
2.786851  -6.247328 39.684028 0.000000 16.000000 31
2.869249  -6.305487 40.383837 0.000000 16.000000 32
2.951596  -6.360786 41.054045 0.000000 16.000000 33
3.033920  -6.413249 41.694024 0.000000 16.000000 34
3.116249  -6.462901 42.303299 0.000000 16.000000 35
3.198610  -6.509775 42.881588 0.000000 16.000000 36
3.281027  -6.553915 43.428828 0.000000 16.000000 37
3.363520  -6.595377 43.945183 0.000000 16.000000 38
3.446108  -6.634227 44.431044 0.000000 16.000000 39
3.528808  -6.670547 44.887010 0.000000 16.000000 40
3.611631  -6.704427 45.313872 0.000000 16.000000 41
3.694587  -6.735966 45.712582 0.000000 16.000000 42
3.777684  -6.765272 46.084227 0.000000 16.000000 43
3.860926  -6.792458 46.429997 0.000000 16.000000 44
3.944317  -6.817639 46.751159 0.000000 16.000000 45
4.027857  -6.840932 47.049026 0.000000 16.000000 46
4.111545  -6.862454 47.324937 0.000000 16.000000 47
4.195379  -6.882320 47.580233 0.000000 16.000000 48
4.279356  -6.900644 47.816242 0.000000 16.000000 49
4.363471  -6.917535 48.034260 0.000000 16.000000 50
4.447720  -6.933096 48.235543 0.000000 16.000000 51
4.532098  -6.947428 48.421296 0.000000 16.000000 52
4.616599  -6.960625 48.592670 0.000000 16.000000 53
4.701217  -6.972775 48.750754 0.000000 16.000000 54
4.785946  -6.983963 48.896572 0.000000 16.000000 55
4.870780  -6.994266 49.031089 0.000000 16.000000 56
4.955713  -7.003755 49.155201 0.000000 16.000000 57
5.040739  -7.012498 49.269746 0.000000 16.000000 58
5.125853  -7.020557 49.375500 0.000000 16.000000 59
5.211050  -7.027990 49.473180 0.000000 16.000000 60
5.296323  -7.034847 49.563450 0.000000 16.000000 61
5.381669  -7.041179 49.646920 0.000000 16.000000 62
5.467082  -7.047029 49.724153 0.000000 16.000000 63
5.552558  -7.052437 49.795663 0.000000 16.000000 64
5.638093  -7.057441 49.861925 0.000000 16.000000 65
5.723683  -7.062076 49.923373 0.000000 16.000000 66
5.809323  -7.066371 49.980403 0.000000 16.000000 67
5.895011  -7.070355 50.033380 0.000000 16.000000 68
5.980743  -7.074055 50.082637 0.000000 16.000000 69
6.066517  -7.077493 50.128477 0.000000 16.000000 70
6.152329  -7.080692 50.171178 0.000000 16.000000 71
6.238176  -7.083670 50.210995 0.000000 16.000000 72
6.324057  -7.086447 50.248160 0.000000 16.000000 73
6.409968  -7.089039 50.282886 0.000000 16.000000 74
6.495908  -7.091459 50.315365 0.000000 16.000000 75
6.581875  -7.093723 50.345775 0.000000 16.000000 76
6.667867  -7.095842 50.374279 0.000000 16.000000 77
6.753882  -7.097828 50.401024 0.000000 16.000000 78
6.839918  -7.099691 50.426146 0.000000 16.000000 79
6.925975  -7.101442 50.449769 0.000000 16.000000 80
7.012050  -7.103087 50.472006 0.000000 16.000000 81
7.098143  -7.104636 50.492962 0.000000 16.000000 82
7.184251  -7.106096 50.512731 0.000000 16.000000 83
7.270375  -7.107472 50.531401 0.000000 16.000000 84
7.356514  -7.108773 50.549052 0.000000 16.000000 85
7.442665  -7.110002 50.565757 0.000000 16.000000 86
7.528828  -7.111166 50.581582 0.000000 16.000000 87
7.615004  -7.112268 50.596591 0.000000 16.000000 88
7.701189  -7.113313 50.610840 0.000000 16.000000 89
7.787385  -7.114306 50.624381 0.000000 16.000000 90
7.873590  -7.115249 50.637262 0.000000 16.000000 91
7.959804  -7.116146 50.649527 0.000000 16.000000 92
8.046027  -7.117000 50.661217 0.000000 16.000000 93
8.132257  -7.117815 50.672369 0.000000 16.000000 94
8.218494  -7.118591 50.683018 0.000000 16.000000 95
8.304738  -7.119333 50.693195 0.000000 16.000000 96
8.390988  -7.120042 50.702931 0.000000 16.000000 97
8.477244  -7.120721 50.712252 0.000000 16.000000 98
8.563506  -7.121370 50.721184 0.000000 16.000000 99
8.649774  -7.121992 50.729749 0.000000 16.000000 100
8.736046  -7.122589 50.737969 0.000000 16.000000 101
8.822323  -7.123162 50.745864 0.000000 16.000000 102
8.908604  -7.123712 50.753452 0.000000 16.000000 103
8.994890  -7.124241 50.760752 0.000000 16.000000 104
9.081179  -7.124750 50.767778 0.000000 16.000000 105
9.167473  -7.125240 50.774545 0.000000 16.000000 106
9.253769  -7.125711 50.781067 0.000000 16.000000 107
9.340070  -7.126166 50.787357 0.000000 16.000000 108
9.426373  -7.126604 50.793427 0.000000 16.000000 109
9.512679  -7.127028 50.799287 0.000000 16.000000 110
9.598989  -7.127436 50.804949 0.000000 16.000000 111
9.685301  -7.127831 50.810422 0.000000 16.000000 112
9.771616  -7.128212 50.815714 0.000000 16.000000 113
9.857933  -7.128581 50.820835 0.000000 16.000000 114
9.944252  -7.128938 50.825792 0.000000 16.000000 115
10.030574  -7.129284 50.830593 0.000000 16.000000 116
10.116898  -7.129619 50.835244 0.000000 16.000000 117
10.203224  -7.129943 50.839752 0.000000 16.000000 118
10.289553  -7.130257 50.844123 0.000000 16.000000 119
10.375883  -7.130562 50.848364 0.000000 16.000000 120
10.462215  -7.130858 50.852478 0.000000 16.000000 121
10.548548  -7.131145 50.856472 0.000000 16.000000 122
10.634884  -7.131423 50.860350 0.000000 16.000000 123
10.721221  -7.131694 50.864117 0.000000 16.000000 124
10.807560  -7.131957 50.867777 0.000000 16.000000 125
10.893900  -7.132212 50.871335 0.000000 16.000000 126
10.980242  -7.132460 50.874793 0.000000 16.000000 127
11.066585  -7.132701 50.878155 0.000000 16.000000 128
11.152930  -7.132936 50.881425 0.000000 16.000000 129
11.239276  -7.133164 50.884607 0.000000 16.000000 130
11.325623  -7.133385 50.887703 0.000000 16.000000 131
11.411971  -7.133601 50.890716 0.000000 16.000000 132
11.498321  -7.133812 50.893650 0.000000 16.000000 133
11.584672  -7.134016 50.896505 0.000000 16.000000 134
11.671025  -7.134215 50.899287 0.000000 16.000000 135
11.757378  -7.134409 50.901995 0.000000 16.000000 136
11.843733  -7.134598 50.904634 0.000000 16.000000 137
11.930089  -7.134782 50.907205 0.000000 16.000000 138
12.016445  -7.134962 50.909710 0.000000 16.000000 139
12.102803  -7.135136 50.912152 0.000000 16.000000 140
12.189162  -7.135307 50.914532 0.000000 16.000000 141
12.275522  -7.135473 50.916851 0.000000 16.000000 142
12.361883  -7.135634 50.919113 0.000000 16.000000 143
12.448245  -7.135792 50.921318 0.000000 16.000000 144
12.534607  -7.135946 50.923469 0.000000 16.000000 145
12.620971  -7.136096 50.925566 0.000000 16.000000 146
12.707336  -7.136242 50.927611 0.000000 16.000000 147
12.793702  -7.136385 50.929606 0.000000 16.000000 148
12.880068  -7.136524 50.931552 0.000000 16.000000 149
12.966435  -7.136660 50.933451 0.000000 16.000000 150
13.052804  -7.136792 50.935303 0.000000 16.000000 151
13.139173  -7.136921 50.937111 0.000000 16.000000 152
13.225542  -7.137047 50.938875 0.000000 16.000000 153
13.311913  -7.137170 50.940596 0.000000 16.000000 154
13.398285  -7.137290 50.942275 0.000000 16.000000 155
13.484657  -7.137407 50.943915 0.000000 16.000000 156
13.571030  -7.137522 50.945515 0.000000 16.000000 157
13.657404  -7.137633 50.947076 0.000000 16.000000 158
13.743778  -7.137742 50.948601 0.000000 16.000000 159
13.830154  -7.137848 50.950089 0.000000 16.000000 160
13.916530  -7.137952 50.951542 0.000000 16.000000 161
14.002906  -7.138054 50.952960 0.000000 16.000000 162
14.089284  -7.138152 50.954344 0.000000 16.000000 163
14.175662  -7.138249 50.955696 0.000000 16.000000 164
14.262041  -7.138343 50.957016 0.000000 16.000000 165
14.348421  -7.138435 50.958304 0.000000 16.000000 166
14.434801  -7.138525 50.959562 0.000000 16.000000 167
14.521182  -7.138613 50.960791 0.000000 16.000000 168
14.607563  -7.138699 50.961990 0.000000 16.000000 169
14.693945  -7.138782 50.963162 0.000000 16.000000 170
14.780328  -7.138864 50.964306 0.000000 16.000000 171
14.866712  -7.138944 50.965423 0.000000 16.000000 172
14.953096  -7.139022 50.966514 0.000000 16.000000 173
15.039480  -7.139098 50.967579 0.000000 16.000000 174
15.125865  -7.139172 50.968619 0.000000 16.000000 175
15.212251  -7.139244 50.969635 0.000000 16.000000 176
15.298638  -7.139315 50.970628 0.000000 16.000000 177
15.385025  -7.139384 50.971597 0.000000 16.000000 178
15.471412  -7.139452 50.972543 0.000000 16.000000 179
15.557800  -7.139518 50.973468 0.000000 16.000000 180
15.644189  -7.139582 50.974370 0.000000 16.000000 181
15.730578  -7.139645 50.975252 0.000000 16.000000 182
15.816968  -7.139707 50.976114 0.000000 16.000000 183
15.903358  -7.139767 50.976955 0.000000 16.000000 184
15.989749  -7.139826 50.977776 0.000000 16.000000 185
16.076140  -7.139883 50.978579 0.000000 16.000000 186
16.162532  -7.139939 50.979363 0.000000 16.000000 187
16.248924  -7.139994 50.980128 0.000000 16.000000 188
16.335317  -7.140047 50.980876 0.000000 16.000000 189
16.421710  -7.140099 50.981607 0.000000 16.000000 190
16.508104  -7.140150 50.982320 0.000000 16.000000 191
16.594498  -7.140200 50.983017 0.000000 16.000000 192
16.680893  -7.140248 50.983698 0.000000 16.000000 193
16.767288  -7.140296 50.984363 0.000000 16.000000 194
16.853683  -7.140342 50.985013 0.000000 16.000000 195
16.940079  -7.140387 50.985647 0.000000 16.000000 196
17.026476  -7.140432 50.986267 0.000000 16.000000 197
17.112873  -7.140475 50.986872 0.000000 16.000000 198
17.199270  -7.140517 50.987464 0.000000 16.000000 199
17.285668  -7.140558 50.988041 0.000000 16.000000 200
17.372066  -7.140599 50.988606 0.000000 16.000000 201
17.458464  -7.140638 50.989157 0.000000 16.000000 202
17.544863  -7.140676 50.989695 0.000000 16.000000 203
17.631262  -7.140714 50.990221 0.000000 16.000000 204
17.717662  -7.140751 50.990735 0.000000 16.000000 205
17.804062  -7.140786 50.991237 0.000000 16.000000 206
17.890463  -7.140821 50.991727 0.000000 16.000000 207
17.976863  -7.140856 50.992206 0.000000 16.000000 208
18.063265  -7.140889 50.992674 0.000000 16.000000 209
18.149666  -7.140922 50.993131 0.000000 16.000000 210
18.236068  -7.140953 50.993577 0.000000 16.000000 211
18.322470  -7.140984 50.994013 0.000000 16.000000 212
18.408873  -7.141015 50.994439 0.000000 16.000000 213
18.495276  -7.141045 50.994855 0.000000 16.000000 214
18.581679  -7.141074 50.995261 0.000000 16.000000 215
18.668083  -7.141102 50.995658 0.000000 16.000000 216
18.754486  -7.141130 50.996046 0.000000 16.000000 217
18.840891  -7.141157 50.996425 0.000000 16.000000 218
18.927295  -7.141183 50.996795 0.000000 16.000000 219
19.013700  -7.141209 50.997157 0.000000 16.000000 220
19.100105  -7.141234 50.997510 0.000000 16.000000 221
19.186510  -7.141259 50.997855 0.000000 16.000000 222
19.272916  -7.141283 50.998192 0.000000 16.000000 223
19.359322  -7.141306 50.998521 0.000000 16.000000 224
19.445728  -7.141329 50.998843 0.000000 16.000000 225
19.532135  -7.141352 50.999157 0.000000 16.000000 226
19.618542  -7.141373 50.999464 0.000000 16.000000 227
19.704949  -7.141395 50.999763 0.000000 16.000000 228
19.791356  -7.141416 51.000056 0.000000 16.000000 229
19.877764  -7.141436 51.000342 0.000000 16.000000 230
19.964172  -7.141456 51.000622 0.000000 16.000000 231
20.050580  -7.141476 51.000894 0.000000 16.000000 232
20.136988  -7.141495 51.001161 0.000000 16.000000 233
20.223397  -7.141513 51.001421 0.000000 16.000000 234
20.309806  -7.141531 51.001676 0.000000 16.000000 235
20.396215  -7.141549 51.001924 0.000000 16.000000 236
20.482624  -7.141566 51.002167 0.000000 16.000000 237
20.569033  -7.141583 51.002404 0.000000 16.000000 238
20.655443  -7.141600 51.002636 0.000000 16.000000 239
20.741853  -7.141616 51.002862 0.000000 16.000000 240
20.828263  -7.141632 51.003083 0.000000 16.000000 241
20.914674  -7.141647 51.003299 0.000000 16.000000 242
21.001084  -7.141662 51.003510 0.000000 16.000000 243
21.087495  -7.141677 51.003716 0.000000 16.000000 244
21.173906  -7.141691 51.003917 0.000000 16.000000 245
21.260317  -7.141705 51.004114 0.000000 16.000000 246
21.346729  -7.141719 51.004306 0.000000 16.000000 247
21.433140  -7.141732 51.004494 0.000000 16.000000 248
21.519552  -7.141745 51.004677 0.000000 16.000000 249
21.605964  -7.141758 51.004856 0.000000 16.000000 250
21.692376  -7.141771 51.005031 0.000000 16.000000 251
21.778789  -7.141783 51.005202 0.000000 16.000000 252
21.865201  -7.141795 51.005368 0.000000 16.000000 253
21.951614  -7.141806 51.005531 0.000000 16.000000 254
22.038027  -7.141818 51.005691 0.000000 16.000000 255
22.124440  -7.141829 51.005846 0.000000 16.000000 256
22.210853  -7.141840 51.005998 0.000000 16.000000 257
22.297266  -7.141850 51.006146 0.000000 16.000000 258
22.383680  -7.141861 51.006291 0.000000 16.000000 259
22.470094  -7.141871 51.006433 0.000000 16.000000 260
22.556507  -7.141881 51.006571 0.000000 16.000000 261
22.642921  -7.141890 51.006706 0.000000 16.000000 262
22.729335  -7.141900 51.006838 0.000000 16.000000 263
22.815750  -7.141909 51.006967 0.000000 16.000000 264
22.902164  -7.141918 51.007093 0.000000 16.000000 265
22.988579  -7.141927 51.007216 0.000000 16.000000 266
23.074993  -7.141935 51.007336 0.000000 16.000000 267
23.161408  -7.141944 51.007454 0.000000 16.000000 268
23.247823  -7.141952 51.007568 0.000000 16.000000 269
23.334238  -7.141960 51.007680 0.000000 16.000000 270
23.420653  -7.141968 51.007790 0.000000 16.000000 271
23.507069  -7.141975 51.007897 0.000000 16.000000 272
23.593484  -7.141983 51.008001 0.000000 16.000000 273
23.679900  -7.141990 51.008103 0.000000 16.000000 274
23.766315  -7.141997 51.008203 0.000000 16.000000 275
23.852731  -7.142004 51.008300 0.000000 16.000000 276
23.939147  -7.142011 51.008395 0.000000 16.000000 277
24.025563  -7.142017 51.008488 0.000000 16.000000 278
24.111979  -7.142024 51.008579 0.000000 16.000000 279
24.198396  -7.142030 51.008667 0.000000 16.000000 280
24.284812  -7.142036 51.008754 0.000000 16.000000 281
24.371228  -7.142042 51.008838 0.000000 16.000000 282
24.457645  -7.142048 51.008921 0.000000 16.000000 283
24.544062  -7.142054 51.009001 0.000000 16.000000 284
24.630478  -7.142060 51.009080 0.000000 16.000000 285
24.716895  -7.142065 51.009157 0.000000 16.000000 286
24.803312  -7.142071 51.009232 0.000000 16.000000 287
24.889729  -7.142076 51.009306 0.000000 16.000000 288
24.976146  -7.142081 51.009378 0.000000 16.000000 289
25.062564  -7.142086 51.009448 0.000000 16.000000 290
25.148981  -7.142091 51.009516 0.000000 16.000000 291
25.235398  -7.142096 51.009583 0.000000 16.000000 292
25.321816  -7.142100 51.009648 0.000000 16.000000 293
25.408233  -7.142105 51.009712 0.000000 16.000000 294
25.494651  -7.142109 51.009774 0.000000 16.000000 295
25.581069  -7.142114 51.009835 0.000000 16.000000 296
25.667487  -7.142118 51.009895 0.000000 16.000000 297
25.753905  -7.142122 51.009953 0.000000 16.000000 298
25.840323  -7.142126 51.010009 0.000000 16.000000 299
25.926741  -7.142130 51.010065 0.000000 16.000000 300
26.013159  -7.142134 51.010119 0.000000 16.000000 301
26.099577  -7.142138 51.010172 0.000000 16.000000 302
26.185995  -7.142141 51.010223 0.000000 16.000000 303
26.272414  -7.142145 51.010274 0.000000 16.000000 304
26.358832  -7.142148 51.010323 0.000000 16.000000 305
26.445250  -7.142152 51.010371 0.000000 16.000000 306
26.531669  -7.142155 51.010418 0.000000 16.000000 307
26.618088  -7.142158 51.010464 0.000000 16.000000 308
26.704506  -7.142162 51.010509 0.000000 16.000000 309
26.790925  -7.142165 51.010553 0.000000 16.000000 310
26.877344  -7.142168 51.010596 0.000000 16.000000 311
26.963763  -7.142171 51.010637 0.000000 16.000000 312
27.050182  -7.142174 51.010678 0.000000 16.000000 313
27.136601  -7.142177 51.010718 0.000000 16.000000 314
27.223020  -7.142179 51.010757 0.000000 16.000000 315
27.309439  -7.142182 51.010795 0.000000 16.000000 316
27.395858  -7.142185 51.010832 0.000000 16.000000 317
27.482277  -7.142187 51.010869 0.000000 16.000000 318
27.568696  -7.142190 51.010904 0.000000 16.000000 319
27.655115  -7.142192 51.010939 0.000000 16.000000 320
27.741535  -7.142195 51.010973 0.000000 16.000000 321
27.827954  -7.142197 51.011006 0.000000 16.000000 322
27.914374  -7.142199 51.011038 0.000000 16.000000 323
28.000793  -7.142202 51.011070 0.000000 16.000000 324
28.087213  -7.142204 51.011100 0.000000 16.000000 325
28.173632  -7.142206 51.011131 0.000000 16.000000 326
28.260052  -7.142208 51.011160 0.000000 16.000000 327
28.346472  -7.142210 51.011189 0.000000 16.000000 328
28.432891  -7.142212 51.011217 0.000000 16.000000 329
28.519311  -7.142214 51.011244 0.000000 16.000000 330
28.605731  -7.142216 51.011271 0.000000 16.000000 331
28.692151  -7.142218 51.011297 0.000000 16.000000 332
28.778570  -7.142220 51.011323 0.000000 16.000000 333
28.864990  -7.142221 51.011347 0.000000 16.000000 334
28.951410  -7.142223 51.011372 0.000000 16.000000 335
29.037830  -7.142225 51.011396 0.000000 16.000000 336
29.124250  -7.142227 51.011419 0.000000 16.000000 337
29.210670  -7.142228 51.011442 0.000000 16.000000 338
29.297091  -7.142230 51.011464 0.000000 16.000000 339
29.383511  -7.142231 51.011485 0.000000 16.000000 340
29.469931  -7.142233 51.011507 0.000000 16.000000 341
29.556351  -7.142234 51.011527 0.000000 16.000000 342
29.642771  -7.142236 51.011547 0.000000 16.000000 343
29.729192  -7.142237 51.011567 0.000000 16.000000 344
29.815612  -7.142239 51.011586 0.000000 16.000000 345
29.902032  -7.142240 51.011605 0.000000 16.000000 346
29.988453  -7.142241 51.011624 0.000000 16.000000 347
30.074873  -7.142242 51.011642 0.000000 16.000000 348
30.161293  -7.142244 51.011659 0.000000 16.000000 349
30.247714  -7.142245 51.011676 0.000000 16.000000 350
30.334134  -7.142246 51.011693 0.000000 16.000000 351
30.420555  -7.142247 51.011709 0.000000 16.000000 352
30.506975  -7.142248 51.011725 0.000000 16.000000 353
30.593396  -7.142250 51.011741 0.000000 16.000000 354
30.679816  -7.142251 51.011756 0.000000 16.000000 355
30.766237  -7.142252 51.011771 0.000000 16.000000 356
30.852658  -7.142253 51.011786 0.000000 16.000000 357
30.939078  -7.142254 51.011800 0.000000 16.000000 358
31.025499  -7.142255 51.011814 0.000000 16.000000 359
31.111920  -7.142256 51.011827 0.000000 16.000000 360
31.198340  -7.142257 51.011840 0.000000 16.000000 361
31.284761  -7.142258 51.011853 0.000000 16.000000 362
31.371182  -7.142258 51.011866 0.000000 16.000000 363
31.457603  -7.142259 51.011878 0.000000 16.000000 364
31.544024  -7.142260 51.011890 0.000000 16.000000 365
31.630444  -7.142261 51.011902 0.000000 16.000000 366
31.716865  -7.142262 51.011914 0.000000 16.000000 367
31.803286  -7.142263 51.011925 0.000000 16.000000 368
31.889707  -7.142263 51.011936 0.000000 16.000000 369
31.976128  -7.142264 51.011947 0.000000 16.000000 370
32.062549  -7.142265 51.011957 0.000000 16.000000 371
32.148970  -7.142266 51.011967 0.000000 16.000000 372
32.235391  -7.142266 51.011977 0.000000 16.000000 373
