 # inv_tmp, energy, phys_var, phys_doublon, phys_num, step_i
0.0616137861440563  -0.4602678258384282 3.4428250681541721 0.0000000000000000 12.0000000000000000 1
0.1224740572256606  -0.6599778811110260 3.7244801558671150 0.0000000000000000 12.0000000000000000 2
0.1825828270526062  -0.8617981047651582 4.0756874135696535 0.0000000000000000 12.0000000000000000 3
0.2419488391722905  -1.0648414241956314 4.4966543025871895 0.0000000000000000 12.0000000000000000 4
0.3005871724850642  -1.2682193898240510 4.9864766183583278 0.0000000000000000 12.0000000000000000 5
0.3585186565412635  -1.4710614944493636 5.5431739427552982 0.0000000000000000 12.0000000000000000 6
0.4157691366943883  -1.6725330583898523 6.1637685551391250 0.0000000000000000 12.0000000000000000 7
0.4723686351223865  -1.8718509450877174 6.8444012914172649 0.0000000000000000 12.0000000000000000 8
0.5283504553926170  -2.0682965563533093 7.5804754808052266 0.0000000000000000 12.0000000000000000 9
0.5837502762005228  -2.2612257593687950 8.3668187314697349 0.0000000000000000 12.0000000000000000 10
0.6386052749281602  -2.4500756002600950 9.1978520310512319 0.0000000000000000 12.0000000000000000 11
0.6929533146496145  -2.6343678464621867 10.0677562890110970 0.0000000000000000 12.0000000000000000 12
0.7468322200538856  -2.8137095613309793 10.9706278802140726 0.0000000000000000 12.0000000000000000 13
0.8002791592648002  -2.9877910424695031 11.9006166949484911 0.0000000000000000 12.0000000000000000 14
0.8533301403721534  -3.1563815464392597 12.8520423836410274 0.0000000000000000 12.0000000000000000 15
0.9060196241497549  -3.3193232762812190 13.8194866504961364 0.0000000000000000 12.0000000000000000 16
0.9583802482673774  -3.4765241264805109 14.7978613949433395 0.0000000000000000 12.0000000000000000 17
1.0104426535003224  -3.6279496667036835 15.7824540841408627 0.0000000000000000 12.0000000000000000 18
1.0622353990663116  -3.7736148064745434 16.7689528928564897 0.0000000000000000 12.0000000000000000 19
1.1137849522272638  -3.9135755246207888 17.7534548586159922 0.0000000000000000 12.0000000000000000 20
1.1651157365482339  -4.0479209768713504 18.7324606072146338 0.0000000000000000 12.0000000000000000 21
1.2162502235111816  -4.1767662191886865 19.7028591749311062 0.0000000000000000 12.0000000000000000 22
1.2672090533065203  -4.3002457092399231 20.6619061730434908 0.0000000000000000 12.0000000000000000 23
1.3180111723298080  -4.4185076786199522 21.6071980938632038 0.0000000000000000 12.0000000000000000 24
1.3686739769642438  -4.5317094074524338 22.5366450244940673 0.0000000000000000 12.0000000000000000 25
1.4192134554273590  -4.6400133828646393 23.4484434806107025 0.0000000000000000 12.0000000000000000 26
1.4696443216331014  -4.7435842843892981 24.3410505474688819 0.0000000000000000 12.0000000000000000 27
1.5199801370386838  -4.8425867124175337 25.2131600527062787 0.0000000000000000 12.0000000000000000 28
1.5702334182189830  -4.9371835594899975 26.0636811142831633 0.0000000000000000 12.0000000000000000 29
1.6204157293864723  -5.0275349170532984 26.8917191141093390 0.0000000000000000 12.0000000000000000 30
1.6705377602299138  -5.1137974106416033 27.6965589412931337 0.0000000000000000 12.0000000000000000 31
1.7206093902842905  -5.1961238625028683 28.4776502199868702 0.0000000000000000 12.0000000000000000 32
1.7706397415911757  -5.2746631907682495 29.2345941731463377 0.0000000000000000 12.0000000000000000 33
1.8206372216996078  -5.3495604668130357 29.9671317611234755 0.0000000000000000 12.0000000000000000 34
1.8706095591371033  -5.4209570661503674 30.6751327587451925 0.0000000000000000 12.0000000000000000 35
1.9205638333962267  -5.4889908619589498 31.3585854833391551 0.0000000000000000 12.0000000000000000 36
1.9705065012807805  -5.5537964233570545 32.0175869478048796 0.0000000000000000 12.0000000000000000 37
2.0204434211800368  -5.6155051922277126 32.6523332782353890 0.0000000000000000 12.0000000000000000 38
2.0703798765267107  -5.6742456224282618 33.2631102980083142 0.0000000000000000 12.0000000000000000 39
2.1203205993747112  -5.7301432734239519 33.8502842350964741 0.0000000000000000 12.0000000000000000 40
2.1702697947292444  -5.7833208567647461 34.4142925539378268 0.0000000000000000 12.0000000000000000 41
2.2202311659905547  -5.8338982384852027 34.9556349464832294 0.0000000000000000 12.0000000000000000 42
2.2702079416432492  -5.8819924036343796 35.4748645391576218 0.0000000000000000 12.0000000000000000 43
2.3202029031401512  -5.9277173909666434 35.9725793844355408 0.0000000000000000 12.0000000000000000 44
2.3702184137931623  -5.9711842065934881 36.4494143090874587 0.0000000000000000 12.0000000000000000 45
2.4202564483906945  -6.0125007253564888 36.9060331876959680 0.0000000000000000 12.0000000000000000 46
2.4703186232068934  -6.0517715880601743 37.3431217016102508 0.0000000000000000 12.0000000000000000 47
2.5204062260459263  -6.0890981017004950 37.7613806318279615 0.0000000000000000 12.0000000000000000 48
2.5705202459684227  -6.1245781486071467 38.1615197208778625 0.0000000000000000 12.0000000000000000 49
2.6206614023703185  -6.1583061091191169 38.5442521248667731 0.0000000000000000 12.0000000000000000 50
2.6708301731208794  -6.1903728011326304 38.9102894634132355 0.0000000000000000 12.0000000000000000 51
2.7210268215114457  -6.2208654386696693 39.2603374629040900 0.0000000000000000 12.0000000000000000 52
2.7712514218150739  -6.2498676105590096 39.5950921778236307 0.0000000000000000 12.0000000000000000 53
2.8215038833064763  -6.2774592794238782 39.9152367660525726 0.0000000000000000 12.0000000000000000 54
2.8717839726388084  -6.3037168004401938 40.2214387870901575 0.0000000000000000 12.0000000000000000 55
2.9220913345172579  -6.3287129587627682 40.5143479870627203 0.0000000000000000 12.0000000000000000 56
2.9724255106479096  -6.3525170241023226 40.7945945310071778 0.0000000000000000 12.0000000000000000 57
3.0227859569733559  -6.3751948206574465 41.0627876410663362 0.0000000000000000 12.0000000000000000 58
3.0731720592339133  -6.3968088104430016 41.3195145986799659 0.0000000000000000 12.0000000000000000 59
3.1235831469151951  -6.4174181879903607 41.5653400693728443 0.0000000000000000 12.0000000000000000 60
3.1740185056595012  -6.4370789844058294 41.8008057101031127 0.0000000000000000 12.0000000000000000 61
3.2244773882305813  -6.4558441788436571 42.0264300211347006 0.0000000000000000 12.0000000000000000 62
3.2749590241293229  -6.4737638155635295 42.2427084068495304 0.0000000000000000 12.0000000000000000 63
3.3254626279624153  -6.4908851248851480 42.4501134126592774 0.0000000000000000 12.0000000000000000 64
3.3759874066676456  -6.5072526465138152 42.6490951080798766 0.0000000000000000 12.0000000000000000 65
3.4265325656987415  -6.5229083538806067 42.8400815889835798 0.0000000000000000 12.0000000000000000 66
3.4770973142700528  -6.5378917783123960 43.0234795749606818 0.0000000000000000 12.0000000000000000 67
3.5276808697573827  -6.5522401320143890 43.1996750805396204 0.0000000000000000 12.0000000000000000 68
3.5782824613462521  -6.5659884290074872 43.3690341416837057 0.0000000000000000 12.0000000000000000 69
3.6289013330131961  -6.5791696033116995 43.5319035814754400 0.0000000000000000 12.0000000000000000 70
3.6795367459195609  -6.5918146238032653 43.6886118011939715 0.0000000000000000 12.0000000000000000 71
3.7301879802909963  -6.6039526052964188 43.8394695850803942 0.0000000000000000 12.0000000000000000 72
3.7808543368495009  -6.6156109155102918 43.9847709089673629 0.0000000000000000 12.0000000000000000 73
3.8315351378586997  -6.6268152776778679 44.1247937446282563 0.0000000000000000 12.0000000000000000 74
3.8822297278370654  -6.6375898686373107 44.2598008531858795 0.0000000000000000 12.0000000000000000 75
3.9329374739880949  -6.6479574123176377 44.3900405622224952 0.0000000000000000 12.0000000000000000 76
3.9836577663911470  -6.6579392685910426 44.5157475223652810 0.0000000000000000 12.0000000000000000 77
4.0343900179916687  -6.6675555175147094 44.6371434400992015 0.0000000000000000 12.0000000000000000 78
4.0851336644249523  -6.6768250390262391 44.7544377843957193 0.0000000000000000 12.0000000000000000 79
4.1358881637034015  -6.6857655881901543 44.8678284654561139 0.0000000000000000 12.0000000000000000 80
4.1866529957934384  -6.6943938661193911 44.9775024844672657 0.0000000000000000 12.0000000000000000 81
4.2374276621047802  -6.7027255867157969 45.0836365537662402 0.0000000000000000 12.0000000000000000 82
4.2882116849116905  -6.7107755393886368 45.1863976872224526 0.0000000000000000 12.0000000000000000 83
4.3390046067230585  -6.7185576479206448 45.2859437609827964 0.0000000000000000 12.0000000000000000 84
4.3898059896157093  -6.7260850256578379 45.3824240449962844 0.0000000000000000 12.0000000000000000 85
4.4406154145431405  -6.7333700272027954 45.4759797059487596 0.0000000000000000 12.0000000000000000 86
4.4914324806299994  -6.7404242967921775 45.5667442824063187 0.0000000000000000 12.0000000000000000 87
4.5422568044608900  -6.7472588135379592 45.6548441330902719 0.0000000000000000 12.0000000000000000 88
4.5930880193706551  -6.7538839337090604 45.7403988592996882 0.0000000000000000 12.0000000000000000 89
4.6439257747419749  -6.7603094302257940 45.8235217025592760 0.0000000000000000 12.0000000000000000 90
4.6947697353150266  -6.7665445295343147 45.9043199186097652 0.0000000000000000 12.0000000000000000 91
4.7456195805129679  -6.7725979460222376 45.9828951288776153 0.0000000000000000 12.0000000000000000 92
4.7964750037862078  -6.7784779141299865 46.0593436505636191 0.0000000000000000 12.0000000000000000 93
4.8473357119776956  -6.7841922183055630 46.1337568064813439 0.0000000000000000 12.0000000000000000 94
4.8982014247108792  -6.7897482209431441 46.2062212157560452 0.0000000000000000 12.0000000000000000 95
4.9490718738014561  -6.7951528884388450 46.2768190664677874 0.0000000000000000 12.0000000000000000 96
4.9999468026936338  -6.8004128154895387 46.3456283712880506 0.0000000000000000 12.0000000000000000 97
5.0508259659212360  -6.8055342477536644 46.4127232071221130 0.0000000000000000 12.0000000000000000 98
5.1017091285937175  -6.8105231029857958 46.4781739397273981 0.0000000000000000 12.0000000000000000 99
5.1525960659068861  -6.8153849907500685 46.5420474342350090 0.0000000000000000 12.0000000000000000 100
5.2034865626779521  -6.8201252308109295 46.6044072524577331 0.0000000000000000 12.0000000000000000 101
5.2543804129043545  -6.8247488702933730 46.6653138378220476 0.0000000000000000 12.0000000000000000 102
5.3052774193457042  -6.8292606996988692 46.7248246887178524 0.0000000000000000 12.0000000000000000 103
5.3561773931280561  -6.8336652678574037 46.7829945210152189 0.0000000000000000 12.0000000000000000 104
5.4070801533697130  -6.8379668958906041 46.8398754204541419 0.0000000000000000 12.0000000000000000 105
5.4579855268276427  -6.8421696902558935 46.8955169855721294 0.0000000000000000 12.0000000000000000 106
5.5088933475636077  -6.8462775549366501 46.9499664617934087 0.0000000000000000 12.0000000000000000 107
5.5598034566290737  -6.8502942028388700 47.0032688672652199 0.0000000000000000 12.0000000000000000 108
5.6107157017679459  -6.8542231664505513 47.0554671109894400 0.0000000000000000 12.0000000000000000 109
5.6616299371362180  -6.8580678078159645 47.1066021037625831 0.0000000000000000 12.0000000000000000 110
5.7125460230375760  -6.8618313278733538 47.1567128624039071 0.0000000000000000 12.0000000000000000 111
5.7634638256740898  -6.8655167752009181 47.2058366077190072 0.0000000000000000 12.0000000000000000 112
5.8143832169110841  -6.8691270542128873 47.2540088566174532 0.0000000000000000 12.0000000000000000 113
5.8653040740553442  -6.8726649328443017 47.3012635087736584 0.0000000000000000 12.0000000000000000 114
5.9162262796458291  -6.8761330497603597 47.3476329281947130 0.0000000000000000 12.0000000000000000 115
5.9671497212561126  -6.8795339211235529 47.3931480200331663 0.0000000000000000 12.0000000000000000 116
6.0180742913077827  -6.8828699469493664 47.4378383029601025 0.0000000000000000 12.0000000000000000 117
6.0689998868940860  -6.8861434170790581 47.4817319773916395 0.0000000000000000 12.0000000000000000 118
6.1199264096131296  -6.8893565167959485 47.5248559898419103 0.0000000000000000 12.0000000000000000 119
6.1708537654099960  -6.8925113321096871 47.5672360936561489 0.0000000000000000 12.0000000000000000 120
6.2217818644271459  -6.8956098547311413 47.6088969063602434 0.0000000000000000 12.0000000000000000 121
6.2727106208625409  -6.8986539867589673 47.6498619638462912 0.0000000000000000 12.0000000000000000 122
6.3236399528349354  -6.9016455450972245 47.6901537715980481 0.0000000000000000 12.0000000000000000 123
6.3745697822558229  -6.9045862656221741 47.7297938531467025 0.0000000000000000 12.0000000000000000 124
6.4255000347075564  -6.9074778071148586 47.7688027959329560 0.0000000000000000 12.0000000000000000 125
6.4764306393272051  -6.9103217549750005 47.8072002947398644 0.0000000000000000 12.0000000000000000 126
6.5273615286957032  -6.9131196247305553 47.8450051928490154 0.0000000000000000 12.0000000000000000 127
6.5782926387319201  -6.9158728653562047 47.8822355210619008 0.0000000000000000 12.0000000000000000 128
6.6292239085912765  -6.9185828624131513 47.9189085347187245 0.0000000000000000 12.0000000000000000 129
6.6801552805685667  -6.9212509410216372 47.9550407488372841 0.0000000000000000 12.0000000000000000 130
6.7310867000046724  -6.9238783686768022 47.9906479714863394 0.0000000000000000 12.0000000000000000 131
6.7820181151968777  -6.9264663579177466 48.0257453354997068 0.0000000000000000 12.0000000000000000 132
6.8329494773125150  -6.9290160688589175 48.0603473286302005 0.0000000000000000 12.0000000000000000 133
6.8838807403056776  -6.9315286115923458 48.0944678222356004 0.0000000000000000 12.0000000000000000 134
6.9348118608367990  -6.9340050484686211 48.1281200985824853 0.0000000000000000 12.0000000000000000 135
6.9857427981948428  -6.9364463962638929 48.1613168768479625 0.0000000000000000 12.0000000000000000 136
7.0366735142219454  -6.9388536282397837 48.1940703378938764 0.0000000000000000 12.0000000000000000 137
7.0876039732403200  -6.9412276761025016 48.2263921478829829 0.0000000000000000 12.0000000000000000 138
7.1385341419812338  -6.9435694318670969 48.2582934808020951 0.0000000000000000 12.0000000000000000 139
7.1894639895159509  -6.9458797496323132 48.2897850399525055 0.0000000000000000 12.0000000000000000 140
7.2403934871884603  -6.9481594472711885 48.3208770784643207 0.0000000000000000 12.0000000000000000 141
7.2913226085498914  -6.9504093080421674 48.3515794188877450 0.0000000000000000 12.0000000000000000 142
7.3422513292944949  -6.9526300821251326 48.3819014719099201 0.0000000000000000 12.0000000000000000 143
7.3931796271970720  -6.9548224880865686 48.4118522542443088 0.0000000000000000 12.0000000000000000 144
7.4441074820517823  -6.9569872142776674 48.4414404057350652 0.0000000000000000 12.0000000000000000 145
7.4950348756122178  -6.9591249201690371 48.4706742057172448 0.0000000000000000 12.0000000000000000 146
7.5459617915326964  -6.9612362376253500 48.4995615886702112 0.0000000000000000 12.0000000000000000 147
7.5968882153106767  -6.9633217721231189 48.5281101592001249 0.0000000000000000 12.0000000000000000 148
7.6478141342302477  -6.9653821039145454 48.5563272063843527 0.0000000000000000 12.0000000000000000 149
7.6987395373066478  -6.9674177891401952 48.5842197175091854 0.0000000000000000 12.0000000000000000 150
7.7496644152317335  -6.9694293608931037 48.6117943912300206 0.0000000000000000 12.0000000000000000 151
7.8005887603203918  -6.9714173302367364 48.6390576501814138 0.0000000000000000 12.0000000000000000 152
7.8515125664578242  -6.9733821871790687 48.6660156530630132 0.0000000000000000 12.0000000000000000 153
7.9024358290477013  -6.9753244016049329 48.6926743062255056 0.0000000000000000 12.0000000000000000 154
7.9533585449611222  -6.9772444241686520 48.7190392747795329 0.0000000000000000 12.0000000000000000 155
8.0042807124863895  -6.9791426871487925 48.7451159932488736 0.0000000000000000 12.0000000000000000 156
8.0552023312795580  -6.9810196052668889 48.7709096757887437 0.0000000000000000 12.0000000000000000 157
8.1061234023157365  -6.9828755764717281 48.7964253259875846 0.0000000000000000 12.0000000000000000 158
8.1570439278411389  -6.9847109826908307 48.8216677462712312 0.0000000000000000 12.0000000000000000 159
8.2079639113258711  -6.9865261905505740 48.8466415469258379 0.0000000000000000 12.0000000000000000 160
8.2588833574174281  -6.9883215520663455 48.8713511547560984 0.0000000000000000 12.0000000000000000 161
8.3098022718949132  -6.9900974053041054 48.8958008213941753 0.0000000000000000 12.0000000000000000 162
8.3607206616239544  -6.9918540750145066 48.9199946312731200 0.0000000000000000 12.0000000000000000 163
8.4116385345123383  -6.9935918732408640 48.9439365092794816 0.0000000000000000 12.0000000000000000 164
8.4625558994663219  -6.9953110999019783 48.9676302280971214 0.0000000000000000 12.0000000000000000 165
8.5134727663476575  -6.9970120433509555 48.9910794152553635 0.0000000000000000 12.0000000000000000 166
8.5643891459313135  -6.9986949809109866 49.0142875598928001 0.0000000000000000 12.0000000000000000 167
8.6153050498638706  -7.0003601793890180 49.0372580192479575 0.0000000000000000 12.0000000000000000 168
8.6662204906226510  -7.0020078955682497 49.0599940248874304 0.0000000000000000 12.0000000000000000 169
8.7171354814755162  -7.0036383766803070 49.0824986886818593 0.0000000000000000 12.0000000000000000 170
8.7680500364413767  -7.0052518608578733 49.1047750085388657 0.0000000000000000 12.0000000000000000 171
8.8189641702514159  -7.0068485775686122 49.1268258739027885 0.0000000000000000 12.0000000000000000 172
8.8698778983109996  -7.0084287480310472 49.1486540710292559 0.0000000000000000 12.0000000000000000 173
8.9207912366623230  -7.0099925856131575 49.1702622880437161 0.0000000000000000 12.0000000000000000 174
8.9717042019477429  -7.0115402962143483 49.1916531197914182 0.0000000000000000 12.0000000000000000 175
9.0226168113738634  -7.0130720786314118 49.2128290724868549 0.0000000000000000 12.0000000000000000 176
9.0735290826762931  -7.0145881249091158 49.2337925681696618 0.0000000000000000 12.0000000000000000 177
9.1244410340851836  -7.0160886206759940 49.2545459489743962 0.0000000000000000 12.0000000000000000 178
9.1753526842914450  -7.0175737454659011 49.2750914812208549 0.0000000000000000 12.0000000000000000 179
9.2262640524137307  -7.0190436730258670 49.2954313593311042 0.0000000000000000 12.0000000000000000 180
9.2771751579661252  -7.0204985716107613 49.3155677095800300 0.0000000000000000 12.0000000000000000 181
9.3280860208265839  -7.0219386042652614 49.3355025936848151 0.0000000000000000 12.0000000000000000 182
9.3789966612061129  -7.0233639290936045 49.3552380122395959 0.0000000000000000 12.0000000000000000 183
9.4299070996186796  -7.0247746995175504 49.3747759080004585 0.0000000000000000 12.0000000000000000 184
9.4808173568518654  -7.0261710645230329 49.3941181690263846 0.0000000000000000 12.0000000000000000 185
9.5317274539382577  -7.0275531688958912 49.4132666316813101 0.0000000000000000 12.0000000000000000 186
9.5826374121275926  -7.0289211534470768 49.4322230835019454 0.0000000000000000 12.0000000000000000 187
9.6335472528596373  -7.0302751552277485 49.4509892659365846 0.0000000000000000 12.0000000000000000 188
9.6844569977377937  -7.0316153077346044 49.4695668769591705 0.0000000000000000 12.0000000000000000 189
9.7353666685034792  -7.0329417411058470 49.4879575735633566 0.0000000000000000 12.0000000000000000 190
9.7862762870112086  -7.0342545823080691 49.5061629741407074 0.0000000000000000 12.0000000000000000 191
9.8371858752044279  -7.0355539553144846 49.5241846607473306 0.0000000000000000 12.0000000000000000 192
9.8880954550921025  -7.0368399812746976 49.5420241812627893 0.0000000000000000 12.0000000000000000 193
9.9390050487259849  -7.0381127786764841 49.5596830514455746 0.0000000000000000 12.0000000000000000 194
