 # inv_tmp, energy, phys_var, phys_doublon, phys_num, step_i
0.0616303101627658  -0.4515647368639587 3.4105042345196646 0.0000000000000000 12.0000000000000000 1
0.1225123988391611  -0.6497565789349311 3.6819752550624925 0.0000000000000000 12.0000000000000000 2
0.1826495502857991  -0.8497934465842343 4.0217438557239671 0.0000000000000000 12.0000000000000000 3
0.2420514130206004  -1.0508295744554821 4.4303868505749069 0.0000000000000000 12.0000000000000000 4
0.3007333103819556  -1.2520530808482588 4.9075410274511713 0.0000000000000000 12.0000000000000000 5
0.3587153997053436  -1.4527037586260723 5.4519537456634248 0.0000000000000000 12.0000000000000000 6
0.4160217550167180  -1.6520862939905712 6.0615620415836275 0.0000000000000000 12.0000000000000000 7
0.4726794446432271  -1.8495785702646943 6.7335911720991861 0.0000000000000000 12.0000000000000000 8
0.5287176639699264  -2.0446352120057893 7.4646633300596017 0.0000000000000000 12.0000000000000000 9
0.5841669675401316  -2.2367869313425710 8.2509082140248324 0.0000000000000000 12.0000000000000000 10
0.6390586268682968  -2.4256365144632710 9.0880688798479490 0.0000000000000000 12.0000000000000000 11
0.6934241233950226  -2.6108524210195849 9.9715984323531011 0.0000000000000000 12.0000000000000000 12
0.7472947718904756  -2.7921609758171764 10.8967452470256951 0.0000000000000000 12.0000000000000000 13
0.8007014593446495  -2.9693380388205717 11.8586262496058676 0.0000000000000000 12.0000000000000000 14
0.8536744782060631  -3.1422008808824748 12.8522891491043758 0.0000000000000000 12.0000000000000000 15
0.9062434303803943  -3.3106008024444913 13.8727653557882888 0.0000000000000000 12.0000000000000000 16
0.9584371789529932  -3.4744168388187471 14.9151156516652712 0.0000000000000000 12.0000000000000000 17
1.0102838272846091  -3.6335507188697820 15.9744706099199192 0.0000000000000000 12.0000000000000000 18
1.0618107090921367  -3.7879230964721970 17.0460674048117511 0.0000000000000000 12.0000000000000000 19
1.1130443776215904  -3.9374709618263637 18.1252841423416911 0.0000000000000000 12.0000000000000000 20
1.1640105864634664  -4.0821460632980351 19.2076722883472968 0.0000000000000000 12.0000000000000000 21
1.2147342585352185  -4.2219141271747702 20.2889872638928601 0.0000000000000000 12.0000000000000000 22
1.2652394430043059  -4.3567546477789154 21.3652168782108376 0.0000000000000000 12.0000000000000000 23
1.3155492623268314  -4.4866610278825174 22.4326070086976941 0.0000000000000000 12.0000000000000000 24
1.3656858531191682  -4.6116408731935943 23.4876838221047279 0.0000000000000000 12.0000000000000000 25
1.4156703053326563  -4.7317162789403611 24.5272718479733172 0.0000000000000000 12.0000000000000000 26
1.4655226042888205  -4.8469239860034579 25.5485073380945522 0.0000000000000000 12.0000000000000000 27
1.5152615797092017  -4.9573153242274639 26.5488465408673342 0.0000000000000000 12.0000000000000000 28
1.5649048651036310  -5.0629558980629294 27.5260687520179808 0.0000000000000000 12.0000000000000000 29
1.6144688699191545  -5.1639250021615704 28.4782742413934784 0.0000000000000000 12.0000000000000000 30
1.6639687658337867  -5.2603147805679145 29.4038773736391299 0.0000000000000000 12.0000000000000000 31
1.7134184876114347  -5.3522291621927369 30.3015954203053290 0.0000000000000000 12.0000000000000000 32
1.7628307480918357  -5.4397826174981700 31.1704336919278404 0.0000000000000000 12.0000000000000000 33
1.8122170662168864  -5.5230987874726001 32.0096676976412624 0.0000000000000000 12.0000000000000000 34
1.8615878065100120  -5.6023090370534891 32.8188230693942344 0.0000000000000000 12.0000000000000000 35
1.9109522281247608  -5.6775509823468582 33.5976539743593463 0.0000000000000000 12.0000000000000000 36
1.9603185414438260  -5.7489670354783549 34.3461206915449111 0.0000000000000000 12.0000000000000000 37
2.0096939702122607  -5.8167030037777305 35.0643669566527620 0.0000000000000000 12.0000000000000000 38
2.0590848172968550  -5.8809067721637511 35.7526975923206862 0.0000000000000000 12.0000000000000000 39
2.1084965323455362  -5.9417270897791363 36.4115568473686935 0.0000000000000000 12.0000000000000000 40
2.1579337798472342  -5.9993124746418287 37.0415077753212358 0.0000000000000000 12.0000000000000000 41
2.2074005063394182  -6.0538102436603509 37.6432128943740452 0.0000000000000000 12.0000000000000000 42
2.2569000057582178  -6.1053656699813956 38.2174162915391662 0.0000000000000000 12.0000000000000000 43
2.3064349821607775  -6.1541212653466744 38.7649272648983612 0.0000000000000000 12.0000000000000000 44
2.3560076092620248  -6.2002161818954402 39.2866055405055619 0.0000000000000000 12.0000000000000000 45
2.4056195864132626  -6.2437857255603806 39.7833480543826994 0.0000000000000000 12.0000000000000000 46
2.4552721908059478  -6.2849609717382577 40.2560772545117231 0.0000000000000000 12.0000000000000000 47
2.5049663258110582  -6.3238684731289183 40.7057308516149448 0.0000000000000000 12.0000000000000000 48
2.5547025654645159  -6.3606300493853691 41.1332529295186475 0.0000000000000000 12.0000000000000000 49
2.6044811951851377  -6.3953626483724966 41.5395863146494833 0.0000000000000000 12.0000000000000000 50
2.6543022488668591  -6.4281782692775682 41.9256660984051663 0.0000000000000000 12.0000000000000000 51
2.7041655425249322  -6.4591839384556167 42.2924142045756639 0.0000000000000000 12.0000000000000000 52
2.7540707046997972  -6.4884817296491102 42.6407348956177401 0.0000000000000000 12.0000000000000000 53
2.8040172038352158  -6.5161688210336850 42.9715111155195402 0.0000000000000000 12.0000000000000000 54
2.8540043728518074  -6.5423375823649064 43.2856015725015411 0.0000000000000000 12.0000000000000000 55
2.9040314311353508  -6.5670756863030340 43.5838384713049862 0.0000000000000000 12.0000000000000000 56
2.9540975041530602  -6.5904662387519277 43.8670258118645293 0.0000000000000000 12.0000000000000000 57
3.0042016409018313  -6.6125879237513363 44.1359381784067253 0.0000000000000000 12.0000000000000000 58
3.0543428293813819  -6.6335151591019619 44.3913199502077305 0.0000000000000000 12.0000000000000000 59
3.1045200102730508  -6.6533182594773113 44.6338848722070338 0.0000000000000000 12.0000000000000000 60
3.1547320889924468  -6.6720636042866452 44.8643159302883987 0.0000000000000000 12.0000000000000000 61
3.2049779462715828  -6.6898138080019427 45.0832654822316812 0.0000000000000000 12.0000000000000000 62
3.2552564474138519  -6.7066278910532731 45.2913556010689149 0.0000000000000000 12.0000000000000000 63
3.3055664503535049  -6.7225614497362098 45.4891785928300720 0.0000000000000000 12.0000000000000000 64
3.3559068126401419  -6.7376668238672188 45.6772976554404622 0.0000000000000000 12.0000000000000000 65
3.4062763974583508  -6.7519932611733928 45.8562476498465514 0.0000000000000000 12.0000000000000000 66
3.4566740787829260  -6.7655870776167015 46.0265359583239757 0.0000000000000000 12.0000000000000000 67
3.5070987457611120  -6.7784918130342593 46.1886434083858930 0.0000000000000000 12.0000000000000000 68
3.5575493064050527  -6.7907483816297987 46.3430252437950330 0.0000000000000000 12.0000000000000000 69
3.6080246906699687  -6.8023952169805106 46.4901121269140987 0.0000000000000000 12.0000000000000000 70
3.6585238529866020  -6.8134684113319661 46.6303111590445809 0.0000000000000000 12.0000000000000000 71
3.7090457743100007  -6.8240018490439178 46.7640069075257401 0.0000000000000000 12.0000000000000000 72
3.7595894637408569  -6.8340273341247908 46.8915624302280207 0.0000000000000000 12.0000000000000000 73
3.8101539597701715  -6.8435747118542558 47.0133202897008999 0.0000000000000000 12.0000000000000000 74
3.8607383311931005  -6.8526719845436528 47.1296035506511117 0.0000000000000000 12.0000000000000000 75
3.9113416777332985  -6.8613454215247867 47.2407167556548018 0.0000000000000000 12.0000000000000000 76
3.9619631304149592  -6.8696196634900755 47.3469468750680136 0.0000000000000000 12.0000000000000000 77
4.0126018517159654  -6.8775178213326917 47.4485642280126569 0.0000000000000000 12.0000000000000000 78
4.0632570355321178  -6.8850615696549387 47.5458233720968977 0.0000000000000000 12.0000000000000000 79
4.1139279069792902  -6.8922712351277573 47.6389639601948147 0.0000000000000000 12.0000000000000000 80
4.1646137220574788  -6.8991658798948077 47.7282115631759112 0.0000000000000000 12.0000000000000000 81
4.2153137671981300  -6.9057633802213765 47.8137784579501215 0.0000000000000000 12.0000000000000000 82
4.2660273587137638  -6.9120805005925119 47.8958643805929896 0.0000000000000000 12.0000000000000000 83
4.3167538421667846  -6.9181329634660882 47.9746572446453428 0.0000000000000000 12.0000000000000000 84
4.3674925916723977  -6.9239355148862902 48.0503338249544782 0.0000000000000000 12.0000000000000000 85
4.4182430091488438  -6.9295019861605827 48.1230604076434219 0.0000000000000000 12.0000000000000000 86
4.4690045235265323  -6.9348453517999591 48.1929934069726613 0.0000000000000000 12.0000000000000000 87
4.5197765899262761  -6.9399777839175893 48.2602799499968285 0.0000000000000000 12.0000000000000000 88
4.5705586888155008  -6.9449107032755792 48.3250584300258481 0.0000000000000000 12.0000000000000000 89
4.6213503251501820  -6.9496548271636343 48.3874590299790910 0.0000000000000000 12.0000000000000000 90
4.6721510275092140  -6.9542202142867406 48.4476042167767744 0.0000000000000000 12.0000000000000000 91
4.7229603472270023  -6.9586163068322504 48.5056092079484102 0.0000000000000000 12.0000000000000000 92
4.7737778575292173  -6.9628519698796225 48.5615824116582431 0.0000000000000000 12.0000000000000000 93
4.8246031526759605  -6.9669355283088974 48.6156258413525038 0.0000000000000000 12.0000000000000000 94
4.8754358471158836  -6.9708748013567927 48.6678355062287125 0.0000000000000000 12.0000000000000000 95
4.9262755746542757  -6.9746771349620413 48.7183017787111794 0.0000000000000000 12.0000000000000000 96
4.9771219876375730  -6.9783494320346202 48.7671097400960036 0.0000000000000000 12.0000000000000000 97
5.0279747561563255  -6.9818981807764109 48.8143395054990847 0.0000000000000000 12.0000000000000000 98
5.0788335672682541  -6.9853294811741637 48.8600665292093623 0.0000000000000000 12.0000000000000000 99
5.1296981242426458  -6.9886490697789805 48.9043618915121385 0.0000000000000000 12.0000000000000000 100
5.1805681458270989  -6.9918623428801308 48.9472925680089901 0.0000000000000000 12.0000000000000000 101
5.2314433655372872  -6.9949743781749820 48.9889216824203402 0.0000000000000000 12.0000000000000000 102
5.2823235309702268  -6.9979899550308540 49.0293087438151360 0.0000000000000000 12.0000000000000000 103
5.3332084031413354  -7.0009135734289032 49.0685098691693469 0.0000000000000000 12.0000000000000000 104
5.3840977558453638  -7.0037494716749693 49.1065779921143957 0.0000000000000000 12.0000000000000000 105
5.4349913750411645  -7.0065016429569411 49.1435630586929832 0.0000000000000000 12.0000000000000000 106
5.4858890582601303  -7.0091738508235277 49.1795122109003700 0.0000000000000000 12.0000000000000000 107
5.5367906140380239  -7.0117696436545440 49.2144699587475856 0.0000000000000000 12.0000000000000000 108
5.5876958613698342  -7.0142923681885705 49.2484783415447822 0.0000000000000000 12.0000000000000000 109
5.6386046291872303  -7.0167451821695837 49.2815770790645331 0.0000000000000000 12.0000000000000000 110
5.6895167558581070  -7.0191310661703810 49.3138037132085572 0.0000000000000000 12.0000000000000000 111
5.7404320887076858  -7.0214528346468033 49.3451937407658505 0.0000000000000000 12.0000000000000000 112
5.7913504835605920  -7.0237131462733506 49.3757807378166831 0.0000000000000000 12.0000000000000000 113
5.8422718043032900  -7.0259145136075585 49.4055964763045807 0.0000000000000000 12.0000000000000000 114
5.8931959224662540  -7.0280593121273460 49.4346710332677617 0.0000000000000000 12.0000000000000000 115
5.9441227168252224  -7.0301497886827020 49.4630328931919365 0.0000000000000000 12.0000000000000000 116
5.9950520730208883  -7.0321880694003918 49.4907090439187343 0.0000000000000000 12.0000000000000000 117
6.0459838831963673  -7.0341761670777831 49.5177250665179258 0.0000000000000000 12.0000000000000000 118
6.0969180456517797  -7.0361159880995316 49.5441052195057310 0.0000000000000000 12.0000000000000000 119
6.1478544645153130  -7.0380093389086431 49.5698725177691983 0.0000000000000000 12.0000000000000000 120
6.1987930494300905  -7.0398579320613361 49.5950488065329722 0.0000000000000000 12.0000000000000000 121
6.2497337152562418  -7.0416633918931542 49.6196548306847660 0.0000000000000000 12.0000000000000000 122
6.3006763817875306  -7.0434272598220105 49.6437102997555115 0.0000000000000000 12.0000000000000000 123
6.3516209734819462  -7.0451509993120514 49.6672339488314663 0.0000000000000000 12.0000000000000000 124
6.4025674192056421  -7.0468360005207353 49.6902435956583304 0.0000000000000000 12.0000000000000000 125
6.4535156519896697  -7.0484835846499276 49.7127561941804146 0.0000000000000000 12.0000000000000000 126
6.5044656087989248  -7.0500950080205138 49.7347878847431559 0.0000000000000000 12.0000000000000000 127
6.5554172303127691  -7.0516714658886555 49.7563540411715621 0.0000000000000000 12.0000000000000000 128
6.6063704607168052  -7.0532140960206515 49.7774693149248435 0.0000000000000000 12.0000000000000000 129
6.6573252475052849  -7.0547239820422440 49.7981476765136293 0.0000000000000000 12.0000000000000000 130
6.7082815412936734  -7.0562021565770525 49.8184024543543984 0.0000000000000000 12.0000000000000000 131
6.7592392956408789  -7.0576496041880059 49.8382463712251962 0.0000000000000000 12.0000000000000000 132
6.8101984668807187  -7.0590672641345531 49.8576915784750199 0.0000000000000000 12.0000000000000000 133
6.8611590139621565  -7.0604560329576671 49.8767496881301895 0.0000000000000000 12.0000000000000000 134
6.9121208982979150  -7.0618167669038510 49.8954318030317054 0.0000000000000000 12.0000000000000000 135
6.9630840836210446  -7.0631502841985787 49.9137485451284704 0.0000000000000000 12.0000000000000000 136
7.0140485358490752  -7.0644573671789352 49.9317100820437787 0.0000000000000000 12.0000000000000000 137
7.0650142229553712  -7.0657387642945491 49.9493261520244047 0.0000000000000000 12.0000000000000000 138
7.1159811148473509  -7.0669951919853471 49.9666060873749984 0.0000000000000000 12.0000000000000000 139
7.1669491832512140  -7.0682273364439867 49.9835588364730228 0.0000000000000000 12.0000000000000000 140
7.2179184016028675  -7.0694358552705241 50.0001929844550048 0.0000000000000000 12.0000000000000000 141
7.2688887449447455  -7.0706213790260541 50.0165167726564306 0.0000000000000000 12.0000000000000000 142
7.3198601898282059  -7.0717845126919396 50.0325381168852630 0.0000000000000000 12.0000000000000000 143
7.3708327142212653  -7.0729258370405788 50.0482646246012450 0.0000000000000000 12.0000000000000000 144
7.4218062974213419  -7.0740459099233881 50.0637036110704940 0.0000000000000000 12.0000000000000000 145
7.4727809199728217  -7.0751452674812274 50.0788621145589445 0.0000000000000000 12.0000000000000000 146
7.5237565635891537  -7.0762244252822351 50.0937469106252635 0.0000000000000000 12.0000000000000000 147
7.5747332110792538  -7.0772838793916666 50.1083645255693426 0.0000000000000000 12.0000000000000000 148
7.6257108462780181  -7.0783241073779770 50.1227212490886558 0.0000000000000000 12.0000000000000000 149
7.6766894539807051  -7.0793455692592415 50.1368231461921923 0.0000000000000000 12.0000000000000000 150
7.7276690198810041  -7.0803487083936210 50.1506760684179937 0.0000000000000000 12.0000000000000000 151
7.7786495305126042  -7.0813339523173928 50.1642856643969424 0.0000000000000000 12.0000000000000000 152
7.8296309731940630  -7.0823017135338455 50.1776573898040681 0.0000000000000000 12.0000000000000000 153
7.8806133359768191  -7.0832523902560842 50.1907965167344372 0.0000000000000000 12.0000000000000000 154
7.9315966075961857  -7.0841863671066250 50.2037081425392842 0.0000000000000000 12.0000000000000000 155
7.9825807774251549  -7.0851040157764711 50.2163971981558035 0.0000000000000000 12.0000000000000000 156
8.0335658354308794  -7.0860056956461968 50.2288684559613472 0.0000000000000000 12.0000000000000000 157
8.0845517721336808  -7.0868917543713241 50.2411265371810174 0.0000000000000000 12.0000000000000000 158
8.1355385785684611  -7.0877625284343111 50.2531759188765861 0.0000000000000000 12.0000000000000000 159
8.1865262462483823  -7.0886183436650576 50.2650209405411630 0.0000000000000000 12.0000000000000000 160
8.2375147671306959  -7.0894595157320204 50.2766658103247437 0.0000000000000000 12.0000000000000000 161
8.2885041335845955  -7.0902863506055986 50.2881146109120749 0.0000000000000000 12.0000000000000000 162
8.3394943383610247  -7.0910991449955585 50.2993713050743381 0.0000000000000000 12.0000000000000000 163
8.3904853745642800  -7.0918981867640909 50.3104397409144397 0.0000000000000000 12.0000000000000000 164
8.4414772356253476  -7.0926837553159041 50.3213236568236795 0.0000000000000000 12.0000000000000000 165
8.4924699152768781  -7.0934561219668284 50.3320266861681773 0.0000000000000000 12.0000000000000000 166
8.5434634075297033  -7.0942155502921826 50.3425523617201947 0.0000000000000000 12.0000000000000000 167
8.5944577066508057  -7.0949622964561234 50.3529041198502583 0.0000000000000000 12.0000000000000000 168
8.6454528071426697  -7.0956966095231424 50.3630853044940920 0.0000000000000000 12.0000000000000000 169
8.6964487037239468  -7.0964187317527676 50.3730991709078495 0.0000000000000000 12.0000000000000000 170
8.7474453913113415  -7.0971288988784735 50.3829488892241244 0.0000000000000000 12.0000000000000000 171
8.7984428650026736  -7.0978273403717154 50.3926375478203425 0.0000000000000000 12.0000000000000000 172
8.8494411200610283  -7.0985142796920329 50.4021681565109745 0.0000000000000000 12.0000000000000000 173
8.9004401518999572  -7.0991899345239933 50.4115436495737370 0.0000000000000000 12.0000000000000000 174
8.9514399560696525  -7.0998545170017522 50.4207668886193545 0.0000000000000000 12.0000000000000000 175
9.0024405282440565  -7.1005082339220102 50.4298406653142379 0.0000000000000000 12.0000000000000000 176
9.0534418642088372  -7.1011512869459743 50.4387677039645581 0.0000000000000000 12.0000000000000000 177
9.1044439598501903  -7.1017838727910494 50.4475506639699347 0.0000000000000000 12.0000000000000000 178
9.1554468111444134  -7.1024061834127643 50.4561921421538528 0.0000000000000000 12.0000000000000000 179
9.2064504141482395  -7.1030184061775934 50.4646946749785101 0.0000000000000000 12.0000000000000000 180
9.2574547649898307  -7.1036207240271265 50.4730607406502187 0.0000000000000000 12.0000000000000000 181
9.3084598598604291  -7.1042133156341309 50.4812927611219777 0.0000000000000000 12.0000000000000000 182
9.3594656950066444  -7.1047963555509526 50.4893931039989354 0.0000000000000000 12.0000000000000000 183
9.4104722667232945  -7.1053700143507061 50.4973640843523910 0.0000000000000000 12.0000000000000000 184
9.4614795713467945  -7.1059344587616433 50.5052079664472444 0.0000000000000000 12.0000000000000000 185
9.5124876052490794  -7.1064898517951152 50.5129269653881607 0.0000000000000000 12.0000000000000000 186
9.5634963648319733  -7.1070363528674818 50.5205232486888605 0.0000000000000000 12.0000000000000000 187
9.6145058465220323  -7.1075741179162968 50.5279989377686434 0.0000000000000000 12.0000000000000000 188
9.6655160467658234  -7.1081032995110993 50.5353561093805439 0.0000000000000000 12.0000000000000000 189
9.7165269620255739  -7.1086240469591253 50.5425967969748342 0.0000000000000000 12.0000000000000000 190
9.7675385887752171  -7.1091365064061893 50.5497229920011364 0.0000000000000000 12.0000000000000000 191
9.8185509234967867  -7.1096408209330653 50.5567366451531655 0.0000000000000000 12.0000000000000000 192
9.8695639626771445  -7.1101371306475158 50.5636396675584621 0.0000000000000000 12.0000000000000000 193
9.9205777028049962  -7.1106255727723244 50.5704339319168099 0.0000000000000000 12.0000000000000000 194
