 # inv_tmp, energy, phys_var, phys_doublon, phys_num, step_i
0.119929  -0.676521 3.699143 0.000000 16.000000 1
0.234399  -1.064931 4.427402 0.000000 16.000000 2
0.343855  -1.449194 5.397374 0.000000 16.000000 3
0.448826  -1.824274 6.586765 0.000000 16.000000 4
0.549865  -2.186274 7.966543 0.000000 16.000000 5
0.647508  -2.532580 9.505089 0.000000 16.000000 6
0.742240  -2.861815 11.171558 0.000000 16.000000 7
0.834479  -3.173631 12.937929 0.000000 16.000000 8
0.924575  -3.468413 14.779753 0.000000 16.000000 9
1.012814  -3.746970 16.675891 0.000000 16.000000 10
1.099436  -4.010261 18.607684 0.000000 16.000000 11
1.184647  -4.259192 20.557983 0.000000 16.000000 12
1.268633  -4.494493 22.510350 0.000000 16.000000 13
1.351568  -4.716674 24.448596 0.000000 16.000000 14
1.433621  -4.926034 26.356716 0.000000 16.000000 15
1.514957  -5.122709 28.219158 0.000000 16.000000 16
1.595739  -5.306745 30.021316 0.000000 16.000000 17
1.676121  -5.478169 31.750112 0.000000 16.000000 18
1.756247  -5.637053 33.394524 0.000000 16.000000 19
1.836247  -5.783561 34.945983 0.000000 16.000000 20
1.916236  -5.917969 36.398561 0.000000 16.000000 21
1.996308  -6.040682 37.748972 0.000000 16.000000 22
2.076542  -6.152215 38.996383 0.000000 16.000000 23
2.156995  -6.253178 40.142108 0.000000 16.000000 24
2.237712  -6.344253 41.189218 0.000000 16.000000 25
2.318720  -6.426163 42.142136 0.000000 16.000000 26
2.400038  -6.499648 43.006237 0.000000 16.000000 27
2.481670  -6.565446 43.787495 0.000000 16.000000 28
2.563618  -6.624274 44.492185 0.000000 16.000000 29
2.645874  -6.676813 45.126641 0.000000 16.000000 30
2.728428  -6.723704 45.697076 0.000000 16.000000 31
2.811267  -6.765539 46.209452 0.000000 16.000000 32
2.894374  -6.802860 46.669393 0.000000 16.000000 33
2.977733  -6.836162 47.082135 0.000000 16.000000 34
3.061329  -6.865888 47.452499 0.000000 16.000000 35
3.145144  -6.892437 47.784890 0.000000 16.000000 36
3.229161  -6.916166 48.083302 0.000000 16.000000 37
3.313367  -6.937391 48.351342 0.000000 16.000000 38
3.397746  -6.956395 48.592250 0.000000 16.000000 39
3.482284  -6.973426 48.808928 0.000000 16.000000 40
3.566969  -6.988706 49.003971 0.000000 16.000000 41
3.651788  -7.002430 49.179691 0.000000 16.000000 42
3.736731  -7.014769 49.338150 0.000000 16.000000 43
3.821787  -7.025877 49.481181 0.000000 16.000000 44
3.906947  -7.035888 49.610415 0.000000 16.000000 45
3.992203  -7.044921 49.727302 0.000000 16.000000 46
4.077546  -7.053080 49.833131 0.000000 16.000000 47
4.162970  -7.060460 49.929048 0.000000 16.000000 48
4.248467  -7.067143 50.016075 0.000000 16.000000 49
4.334032  -7.073200 50.095118 0.000000 16.000000 50
4.419660  -7.078698 50.166985 0.000000 16.000000 51
4.505345  -7.083694 50.232398 0.000000 16.000000 52
4.591082  -7.088238 50.291999 0.000000 16.000000 53
4.676868  -7.092376 50.346360 0.000000 16.000000 54
4.762699  -7.096149 50.395994 0.000000 16.000000 55
4.848570  -7.099592 50.441358 0.000000 16.000000 56
4.934480  -7.102738 50.482862 0.000000 16.000000 57
5.020425  -7.105615 50.520874 0.000000 16.000000 58
5.106401  -7.108250 50.555721 0.000000 16.000000 59
5.192408  -7.110665 50.587699 0.000000 16.000000 60
5.278442  -7.112880 50.617072 0.000000 16.000000 61
5.364502  -7.114915 50.644080 0.000000 16.000000 62
5.450585  -7.116785 50.668936 0.000000 16.000000 63
5.536690  -7.118506 50.691833 0.000000 16.000000 64
5.622815  -7.120092 50.712946 0.000000 16.000000 65
5.708959  -7.121554 50.732431 0.000000 16.000000 66
5.795120  -7.122903 50.750431 0.000000 16.000000 67
5.881298  -7.124149 50.767073 0.000000 16.000000 68
5.967490  -7.125301 50.782473 0.000000 16.000000 69
6.053696  -7.126367 50.796738 0.000000 16.000000 70
6.139915  -7.127354 50.809961 0.000000 16.000000 71
6.226147  -7.128269 50.822230 0.000000 16.000000 72
6.312389  -7.129119 50.833623 0.000000 16.000000 73
6.398642  -7.129907 50.844210 0.000000 16.000000 74
6.484905  -7.130640 50.854058 0.000000 16.000000 75
6.571176  -7.131322 50.863226 0.000000 16.000000 76
6.657457  -7.131957 50.871766 0.000000 16.000000 77
6.743745  -7.132548 50.879728 0.000000 16.000000 78
6.830040  -7.133099 50.887158 0.000000 16.000000 79
6.916343  -7.133614 50.894095 0.000000 16.000000 80
7.002652  -7.134094 50.900577 0.000000 16.000000 81
7.088967  -7.134543 50.906639 0.000000 16.000000 82
7.175287  -7.134963 50.912313 0.000000 16.000000 83
7.261613  -7.135356 50.917625 0.000000 16.000000 84
7.347944  -7.135724 50.922604 0.000000 16.000000 85
7.434280  -7.136068 50.927273 0.000000 16.000000 86
7.520620  -7.136392 50.931655 0.000000 16.000000 87
7.606964  -7.136695 50.935769 0.000000 16.000000 88
7.693312  -7.136980 50.939636 0.000000 16.000000 89
7.779663  -7.137248 50.943271 0.000000 16.000000 90
7.866018  -7.137500 50.946691 0.000000 16.000000 91
7.952377  -7.137737 50.949911 0.000000 16.000000 92
8.038738  -7.137960 50.952944 0.000000 16.000000 93
8.125102  -7.138170 50.955803 0.000000 16.000000 94
8.211469  -7.138369 50.958500 0.000000 16.000000 95
8.297839  -7.138555 50.961045 0.000000 16.000000 96
8.384211  -7.138732 50.963447 0.000000 16.000000 97
8.470585  -7.138898 50.965717 0.000000 16.000000 98
8.556961  -7.139056 50.967862 0.000000 16.000000 99
8.643339  -7.139205 50.969891 0.000000 16.000000 100
8.729720  -7.139345 50.971811 0.000000 16.000000 101
8.816102  -7.139478 50.973629 0.000000 16.000000 102
8.902486  -7.139604 50.975351 0.000000 16.000000 103
8.988871  -7.139724 50.976983 0.000000 16.000000 104
9.075258  -7.139837 50.978529 0.000000 16.000000 105
9.161647  -7.139944 50.979997 0.000000 16.000000 106
9.248037  -7.140046 50.981390 0.000000 16.000000 107
9.334428  -7.140143 50.982712 0.000000 16.000000 108
9.420821  -7.140234 50.983968 0.000000 16.000000 109
9.507214  -7.140321 50.985161 0.000000 16.000000 110
9.593609  -7.140404 50.986296 0.000000 16.000000 111
9.680005  -7.140483 50.987375 0.000000 16.000000 112
9.766402  -7.140558 50.988402 0.000000 16.000000 113
9.852800  -7.140629 50.989380 0.000000 16.000000 114
9.939199  -7.140697 50.990311 0.000000 16.000000 115
10.025599  -7.140762 50.991197 0.000000 16.000000 116
10.112000  -7.140823 50.992042 0.000000 16.000000 117
10.198401  -7.140882 50.992848 0.000000 16.000000 118
10.284804  -7.140938 50.993617 0.000000 16.000000 119
10.371207  -7.140991 50.994350 0.000000 16.000000 120
10.457610  -7.141042 50.995050 0.000000 16.000000 121
10.544015  -7.141091 50.995718 0.000000 16.000000 122
10.630420  -7.141137 50.996356 0.000000 16.000000 123
10.716825  -7.141181 50.996965 0.000000 16.000000 124
10.803232  -7.141224 50.997548 0.000000 16.000000 125
10.889638  -7.141264 50.998105 0.000000 16.000000 126
10.976046  -7.141303 50.998638 0.000000 16.000000 127
11.062454  -7.141340 50.999148 0.000000 16.000000 128
11.148862  -7.141375 50.999635 0.000000 16.000000 129
11.235271  -7.141409 51.000102 0.000000 16.000000 130
11.321680  -7.141441 51.000549 0.000000 16.000000 131
11.408090  -7.141473 51.000978 0.000000 16.000000 132
11.494500  -7.141502 51.001388 0.000000 16.000000 133
11.580911  -7.141531 51.001781 0.000000 16.000000 134
11.667322  -7.141558 51.002158 0.000000 16.000000 135
11.753733  -7.141584 51.002520 0.000000 16.000000 136
11.840145  -7.141609 51.002866 0.000000 16.000000 137
11.926557  -7.141633 51.003199 0.000000 16.000000 138
12.012969  -7.141657 51.003518 0.000000 16.000000 139
12.099381  -7.141679 51.003825 0.000000 16.000000 140
12.185794  -7.141700 51.004119 0.000000 16.000000 141
12.272208  -7.141721 51.004402 0.000000 16.000000 142
12.358621  -7.141740 51.004673 0.000000 16.000000 143
12.445035  -7.141759 51.004934 0.000000 16.000000 144
12.531449  -7.141777 51.005185 0.000000 16.000000 145
12.617863  -7.141795 51.005426 0.000000 16.000000 146
12.704278  -7.141811 51.005658 0.000000 16.000000 147
12.790693  -7.141827 51.005881 0.000000 16.000000 148
12.877107  -7.141843 51.006096 0.000000 16.000000 149
12.963523  -7.141858 51.006302 0.000000 16.000000 150
13.049938  -7.141872 51.006501 0.000000 16.000000 151
13.136354  -7.141886 51.006692 0.000000 16.000000 152
13.222769  -7.141899 51.006876 0.000000 16.000000 153
13.309185  -7.141912 51.007054 0.000000 16.000000 154
13.395602  -7.141925 51.007225 0.000000 16.000000 155
13.482018  -7.141936 51.007390 0.000000 16.000000 156
13.568434  -7.141948 51.007548 0.000000 16.000000 157
13.654851  -7.141959 51.007701 0.000000 16.000000 158
13.741268  -7.141970 51.007849 0.000000 16.000000 159
13.827685  -7.141980 51.007991 0.000000 16.000000 160
13.914102  -7.141990 51.008128 0.000000 16.000000 161
14.000519  -7.141999 51.008261 0.000000 16.000000 162
14.086936  -7.142008 51.008388 0.000000 16.000000 163
14.173354  -7.142017 51.008512 0.000000 16.000000 164
14.259771  -7.142026 51.008631 0.000000 16.000000 165
14.346189  -7.142034 51.008745 0.000000 16.000000 166
14.432607  -7.142042 51.008856 0.000000 16.000000 167
14.519025  -7.142050 51.008963 0.000000 16.000000 168
14.605443  -7.142057 51.009067 0.000000 16.000000 169
14.691861  -7.142065 51.009167 0.000000 16.000000 170
14.778279  -7.142071 51.009263 0.000000 16.000000 171
14.864698  -7.142078 51.009357 0.000000 16.000000 172
14.951116  -7.142085 51.009447 0.000000 16.000000 173
15.037535  -7.142091 51.009534 0.000000 16.000000 174
15.123954  -7.142097 51.009618 0.000000 16.000000 175
15.210372  -7.142103 51.009700 0.000000 16.000000 176
15.296791  -7.142109 51.009779 0.000000 16.000000 177
15.383210  -7.142114 51.009855 0.000000 16.000000 178
15.469629  -7.142119 51.009929 0.000000 16.000000 179
15.556048  -7.142124 51.010000 0.000000 16.000000 180
15.642467  -7.142129 51.010069 0.000000 16.000000 181
15.728886  -7.142134 51.010136 0.000000 16.000000 182
15.815306  -7.142139 51.010201 0.000000 16.000000 183
15.901725  -7.142143 51.010264 0.000000 16.000000 184
15.988144  -7.142148 51.010325 0.000000 16.000000 185
16.074564  -7.142152 51.010383 0.000000 16.000000 186
16.160983  -7.142156 51.010440 0.000000 16.000000 187
16.247403  -7.142160 51.010496 0.000000 16.000000 188
16.333823  -7.142164 51.010549 0.000000 16.000000 189
16.420242  -7.142168 51.010601 0.000000 16.000000 190
16.506662  -7.142171 51.010651 0.000000 16.000000 191
16.593082  -7.142175 51.010700 0.000000 16.000000 192
16.679502  -7.142178 51.010747 0.000000 16.000000 193
16.765922  -7.142181 51.010793 0.000000 16.000000 194
16.852342  -7.142185 51.010837 0.000000 16.000000 195
16.938762  -7.142188 51.010880 0.000000 16.000000 196
17.025182  -7.142191 51.010922 0.000000 16.000000 197
17.111602  -7.142194 51.010962 0.000000 16.000000 198
17.198022  -7.142196 51.011001 0.000000 16.000000 199
17.284442  -7.142199 51.011039 0.000000 16.000000 200
17.370862  -7.142202 51.011076 0.000000 16.000000 201
17.457283  -7.142204 51.011112 0.000000 16.000000 202
17.543703  -7.142207 51.011147 0.000000 16.000000 203
17.630123  -7.142209 51.011181 0.000000 16.000000 204
17.716544  -7.142212 51.011213 0.000000 16.000000 205
17.802964  -7.142214 51.011245 0.000000 16.000000 206
17.889384  -7.142216 51.011276 0.000000 16.000000 207
17.975805  -7.142218 51.011306 0.000000 16.000000 208
18.062225  -7.142220 51.011335 0.000000 16.000000 209
18.148646  -7.142222 51.011363 0.000000 16.000000 210
18.235067  -7.142224 51.011391 0.000000 16.000000 211
18.321487  -7.142226 51.011418 0.000000 16.000000 212
18.407908  -7.142228 51.011443 0.000000 16.000000 213
18.494328  -7.142230 51.011469 0.000000 16.000000 214
18.580749  -7.142232 51.011493 0.000000 16.000000 215
18.667170  -7.142233 51.011517 0.000000 16.000000 216
18.753591  -7.142235 51.011540 0.000000 16.000000 217
18.840011  -7.142237 51.011562 0.000000 16.000000 218
18.926432  -7.142238 51.011584 0.000000 16.000000 219
19.012853  -7.142240 51.011605 0.000000 16.000000 220
19.099274  -7.142241 51.011626 0.000000 16.000000 221
19.185695  -7.142243 51.011646 0.000000 16.000000 222
19.272116  -7.142244 51.011666 0.000000 16.000000 223
19.358536  -7.142245 51.011684 0.000000 16.000000 224
19.444957  -7.142247 51.011703 0.000000 16.000000 225
19.531378  -7.142248 51.011721 0.000000 16.000000 226
19.617799  -7.142249 51.011738 0.000000 16.000000 227
19.704220  -7.142250 51.011755 0.000000 16.000000 228
19.790641  -7.142252 51.011772 0.000000 16.000000 229
19.877062  -7.142253 51.011788 0.000000 16.000000 230
19.963483  -7.142254 51.011803 0.000000 16.000000 231
20.049904  -7.142255 51.011818 0.000000 16.000000 232
20.136325  -7.142256 51.011833 0.000000 16.000000 233
20.222747  -7.142257 51.011848 0.000000 16.000000 234
20.309168  -7.142258 51.011862 0.000000 16.000000 235
20.395589  -7.142259 51.011875 0.000000 16.000000 236
20.482010  -7.142260 51.011888 0.000000 16.000000 237
20.568431  -7.142261 51.011901 0.000000 16.000000 238
20.654852  -7.142262 51.011914 0.000000 16.000000 239
20.741274  -7.142263 51.011926 0.000000 16.000000 240
20.827695  -7.142264 51.011938 0.000000 16.000000 241
20.914116  -7.142264 51.011950 0.000000 16.000000 242
21.000537  -7.142265 51.011961 0.000000 16.000000 243
21.086958  -7.142266 51.011972 0.000000 16.000000 244
21.173380  -7.142267 51.011982 0.000000 16.000000 245
21.259801  -7.142267 51.011993 0.000000 16.000000 246
21.346222  -7.142268 51.012003 0.000000 16.000000 247
21.432644  -7.142269 51.012013 0.000000 16.000000 248
21.519065  -7.142270 51.012022 0.000000 16.000000 249
21.605486  -7.142270 51.012032 0.000000 16.000000 250
21.691908  -7.142271 51.012041 0.000000 16.000000 251
21.778329  -7.142272 51.012050 0.000000 16.000000 252
21.864750  -7.142272 51.012058 0.000000 16.000000 253
21.951172  -7.142273 51.012067 0.000000 16.000000 254
22.037593  -7.142273 51.012075 0.000000 16.000000 255
22.124014  -7.142274 51.012083 0.000000 16.000000 256
22.210436  -7.142274 51.012091 0.000000 16.000000 257
22.296857  -7.142275 51.012098 0.000000 16.000000 258
22.383279  -7.142276 51.012106 0.000000 16.000000 259
22.469700  -7.142276 51.012113 0.000000 16.000000 260
22.556121  -7.142277 51.012120 0.000000 16.000000 261
22.642543  -7.142277 51.012127 0.000000 16.000000 262
22.728964  -7.142278 51.012133 0.000000 16.000000 263
22.815386  -7.142278 51.012140 0.000000 16.000000 264
22.901807  -7.142278 51.012146 0.000000 16.000000 265
22.988229  -7.142279 51.012152 0.000000 16.000000 266
23.074650  -7.142279 51.012158 0.000000 16.000000 267
23.161072  -7.142280 51.012164 0.000000 16.000000 268
23.247493  -7.142280 51.012170 0.000000 16.000000 269
23.333915  -7.142281 51.012175 0.000000 16.000000 270
23.420336  -7.142281 51.012181 0.000000 16.000000 271
23.506758  -7.142281 51.012186 0.000000 16.000000 272
23.593179  -7.142282 51.012191 0.000000 16.000000 273
23.679601  -7.142282 51.012196 0.000000 16.000000 274
23.766022  -7.142282 51.012201 0.000000 16.000000 275
23.852444  -7.142283 51.012206 0.000000 16.000000 276
23.938865  -7.142283 51.012211 0.000000 16.000000 277
24.025287  -7.142283 51.012215 0.000000 16.000000 278
24.111709  -7.142284 51.012220 0.000000 16.000000 279
24.198130  -7.142284 51.012224 0.000000 16.000000 280
24.284552  -7.142284 51.012228 0.000000 16.000000 281
24.370973  -7.142285 51.012232 0.000000 16.000000 282
24.457395  -7.142285 51.012236 0.000000 16.000000 283
24.543817  -7.142285 51.012240 0.000000 16.000000 284
24.630238  -7.142285 51.012244 0.000000 16.000000 285
24.716660  -7.142286 51.012248 0.000000 16.000000 286
24.803081  -7.142286 51.012251 0.000000 16.000000 287
24.889503  -7.142286 51.012255 0.000000 16.000000 288
24.975925  -7.142286 51.012258 0.000000 16.000000 289
25.062346  -7.142287 51.012262 0.000000 16.000000 290
25.148768  -7.142287 51.012265 0.000000 16.000000 291
25.235189  -7.142287 51.012268 0.000000 16.000000 292
25.321611  -7.142287 51.012271 0.000000 16.000000 293
25.408033  -7.142288 51.012274 0.000000 16.000000 294
25.494454  -7.142288 51.012277 0.000000 16.000000 295
25.580876  -7.142288 51.012280 0.000000 16.000000 296
25.667298  -7.142288 51.012283 0.000000 16.000000 297
25.753719  -7.142288 51.012286 0.000000 16.000000 298
25.840141  -7.142289 51.012288 0.000000 16.000000 299
25.926563  -7.142289 51.012291 0.000000 16.000000 300
26.012984  -7.142289 51.012293 0.000000 16.000000 301
26.099406  -7.142289 51.012296 0.000000 16.000000 302
26.185828  -7.142289 51.012298 0.000000 16.000000 303
26.272249  -7.142289 51.012301 0.000000 16.000000 304
26.358671  -7.142290 51.012303 0.000000 16.000000 305
26.445093  -7.142290 51.012305 0.000000 16.000000 306
26.531514  -7.142290 51.012307 0.000000 16.000000 307
26.617936  -7.142290 51.012310 0.000000 16.000000 308
26.704358  -7.142290 51.012312 0.000000 16.000000 309
26.790780  -7.142290 51.012314 0.000000 16.000000 310
26.877201  -7.142291 51.012316 0.000000 16.000000 311
26.963623  -7.142291 51.012318 0.000000 16.000000 312
27.050045  -7.142291 51.012320 0.000000 16.000000 313
27.136466  -7.142291 51.012321 0.000000 16.000000 314
27.222888  -7.142291 51.012323 0.000000 16.000000 315
27.309310  -7.142291 51.012325 0.000000 16.000000 316
27.395732  -7.142291 51.012327 0.000000 16.000000 317
27.482153  -7.142291 51.012328 0.000000 16.000000 318
27.568575  -7.142292 51.012330 0.000000 16.000000 319
27.654997  -7.142292 51.012332 0.000000 16.000000 320
27.741418  -7.142292 51.012333 0.000000 16.000000 321
27.827840  -7.142292 51.012335 0.000000 16.000000 322
27.914262  -7.142292 51.012336 0.000000 16.000000 323
28.000684  -7.142292 51.012338 0.000000 16.000000 324
28.087105  -7.142292 51.012339 0.000000 16.000000 325
28.173527  -7.142292 51.012340 0.000000 16.000000 326
28.259949  -7.142292 51.012342 0.000000 16.000000 327
28.346371  -7.142292 51.012343 0.000000 16.000000 328
28.432792  -7.142293 51.012344 0.000000 16.000000 329
28.519214  -7.142293 51.012346 0.000000 16.000000 330
28.605636  -7.142293 51.012347 0.000000 16.000000 331
28.692058  -7.142293 51.012348 0.000000 16.000000 332
28.778479  -7.142293 51.012349 0.000000 16.000000 333
28.864901  -7.142293 51.012350 0.000000 16.000000 334
28.951323  -7.142293 51.012351 0.000000 16.000000 335
29.037745  -7.142293 51.012353 0.000000 16.000000 336
29.124166  -7.142293 51.012354 0.000000 16.000000 337
29.210588  -7.142293 51.012355 0.000000 16.000000 338
29.297010  -7.142293 51.012356 0.000000 16.000000 339
29.383432  -7.142293 51.012357 0.000000 16.000000 340
29.469854  -7.142294 51.012358 0.000000 16.000000 341
29.556275  -7.142294 51.012359 0.000000 16.000000 342
29.642697  -7.142294 51.012359 0.000000 16.000000 343
29.729119  -7.142294 51.012360 0.000000 16.000000 344
29.815541  -7.142294 51.012361 0.000000 16.000000 345
29.901962  -7.142294 51.012362 0.000000 16.000000 346
29.988384  -7.142294 51.012363 0.000000 16.000000 347
30.074806  -7.142294 51.012364 0.000000 16.000000 348
30.161228  -7.142294 51.012364 0.000000 16.000000 349
30.247650  -7.142294 51.012365 0.000000 16.000000 350
30.334071  -7.142294 51.012366 0.000000 16.000000 351
30.420493  -7.142294 51.012367 0.000000 16.000000 352
30.506915  -7.142294 51.012367 0.000000 16.000000 353
30.593337  -7.142294 51.012368 0.000000 16.000000 354
30.679758  -7.142294 51.012369 0.000000 16.000000 355
30.766180  -7.142294 51.012370 0.000000 16.000000 356
30.852602  -7.142294 51.012370 0.000000 16.000000 357
30.939024  -7.142294 51.012371 0.000000 16.000000 358
31.025446  -7.142295 51.012371 0.000000 16.000000 359
31.111867  -7.142295 51.012372 0.000000 16.000000 360
31.198289  -7.142295 51.012373 0.000000 16.000000 361
31.284711  -7.142295 51.012373 0.000000 16.000000 362
31.371133  -7.142295 51.012374 0.000000 16.000000 363
31.457555  -7.142295 51.012374 0.000000 16.000000 364
31.543976  -7.142295 51.012375 0.000000 16.000000 365
31.630398  -7.142295 51.012375 0.000000 16.000000 366
31.716820  -7.142295 51.012376 0.000000 16.000000 367
31.803242  -7.142295 51.012376 0.000000 16.000000 368
31.889664  -7.142295 51.012377 0.000000 16.000000 369
31.976085  -7.142295 51.012377 0.000000 16.000000 370
32.062507  -7.142295 51.012378 0.000000 16.000000 371
32.148929  -7.142295 51.012378 0.000000 16.000000 372
32.235351  -7.142295 51.012379 0.000000 16.000000 373
