 # inv_tmp, energy, phys_var, phys_doublon, phys_num, step_i
0.0548687935161500  -0.4505918908408528 3.3977938732241149 0.0000000000000000 0.0000000000000000 1
0.1092104838925883  -0.6265202517930237 3.6469003107574722 0.0000000000000000 0.0000000000000000 2
0.1630225236961449  -0.8047301928861286 3.9523861977026176 0.0000000000000000 0.0000000000000000 3
0.2163057715133381  -0.9846811947257463 4.3149591811529593 0.0000000000000000 0.0000000000000000 4
0.2690645089625440  -1.1658084470445147 4.7346359626937016 0.0000000000000000 0.0000000000000000 5
0.3213063844448307  -1.3475305221033800 5.2107281949939903 0.0000000000000000 0.0000000000000000 6
0.3730422801142533  -1.5292580661692243 5.7418510202669237 0.0000000000000000 0.0000000000000000 7
0.4242861017523363  -1.7104032725057294 6.3259545399263359 0.0000000000000000 0.0000000000000000 8
0.4750544952590461  -1.8903897966161523 6.9603770993730452 0.0000000000000000 0.0000000000000000 9
0.5253664979255062  -2.0686626935162504 7.6419178766534301 0.0000000000000000 0.0000000000000000 10
0.5752431369864315  -2.2446979120046793 8.3669250275902343 0.0000000000000000 0.0000000000000000 11
0.6247069915755308  -2.4180108813433376 9.1313947010561680 0.0000000000000000 0.0000000000000000 12
0.6737817366150358  -2.5881637733601290 9.9310756997579048 0.0000000000000000 0.0000000000000000 13
0.7224916880298212  -2.7547711121131764 10.7615744747504500 0.0000000000000000 0.0000000000000000 14
0.7708613678934214  -2.9175035220441519 11.6184554958046036 0.0000000000000000 0.0000000000000000 15
0.8189151058362577  -3.0760895383927709 12.4973327681756352 0.0000000000000000 0.0000000000000000 16
0.8666766896215339  -3.2303155342130450 13.3939492608782658 0.0000000000000000 0.0000000000000000 17
0.9141690736864168  -3.3800239323660541 14.3042421428152924 0.0000000000000000 0.0000000000000000 18
0.9614141501492229  -3.5251099581818597 15.2243928624332376 0.0000000000000000 0.0000000000000000 19
1.0084325827404350  -3.6655172438986758 16.1508621445829093 0.0000000000000000 0.0000000000000000 20
1.0552437006629736  -3.8012326191692352 17.0804108365496674 0.0000000000000000 0.0000000000000000 21
1.1018654467294289  -3.9322804164531742 18.0101081707550854 0.0000000000000000 0.0000000000000000 22
1.1483143723346061  -4.0587165921111605 18.9373294145597555 0.0000000000000000 0.0000000000000000 23
1.1946056708657986  -4.1806229207096175 19.8597450645367068 0.0000000000000000 0.0000000000000000 24
1.2407532409194295  -4.2981014685472276 20.7753037478164870 0.0000000000000000 0.0000000000000000 25
1.2867697710278316  -4.4112694988661563 21.6822108597302474 0.0000000000000000 0.0000000000000000 26
1.3326668383385347  -4.5202549103142680 22.5789047394882232 0.0000000000000000 0.0000000000000000 27
1.3784550146751073  -4.6251922651235944 23.4640319046048837 0.0000000000000000 0.0000000000000000 28
1.4241439745116413  -4.7262194258758203 24.3364225637901157 0.0000000000000000 0.0000000000000000 29
1.4697426005104188  -4.8234747901863457 25.1950673324431023 0.0000000000000000 0.0000000000000000 30
1.5152590833323256  -4.9170950908612419 26.0390958020808725 0.0000000000000000 0.0000000000000000 31
1.5607010133870629  -5.0072137142436945 26.8677573754185488 0.0000000000000000 0.0000000000000000 32
1.6060754630216869  -5.0939594804760473 27.6804045772792335 0.0000000000000000 0.0000000000000000 33
1.6513890583438704  -5.1774558250950289 28.4764788888974252 0.0000000000000000 0.0000000000000000 34
1.6966480404437674  -5.2578203206430096 29.2554990276443618 0.0000000000000000 0.0000000000000000 35
1.7418583162250685  -5.3351644788408610 30.0170515022841187 0.0000000000000000 0.0000000000000000 36
1.7870254993947727  -5.4095937775158882 30.7607832113008435 0.0000000000000000 0.0000000000000000 37
1.8321549424063011  -5.4812078612651174 31.4863958141053217 0.0000000000000000 0.0000000000000000 38
1.8772517603156718  -5.5501008702656982 32.1936415876212436 0.0000000000000000 0.0000000000000000 39
1.9223208476082676  -5.6163618573534180 32.8823204797574533 0.0000000000000000 0.0000000000000000 40
1.9673668890958493  -5.6800752592136288 33.5522780828777982 0.0000000000000000 0.0000000000000000 41
2.0123943659801475  -5.7413213930795983 34.2034042712956179 0.0000000000000000 0.0000000000000000 42
2.0574075581397793  -5.8001769555846083 34.8356322741862670 0.0000000000000000 0.0000000000000000 43
2.1024105436295106  -5.8567155052792916 35.4489379866669054 0.0000000000000000 0.0000000000000000 44
2.1474071962923156  -5.9110079147507708 36.0433393550666850 0.0000000000000000 0.0000000000000000 45
2.1924011822817753  -5.9631227822316610 36.6188957058825082 0.0000000000000000 0.0000000000000000 46
2.2373959561809431  -6.0131267960502317 37.1757069202068493 0.0000000000000000 0.0000000000000000 47
2.2823947572889316  -6.0610850482457668 37.7139123854565810 0.0000000000000000 0.0000000000000000 48
2.3274006065325832  -6.1070612961653952 38.2336896832510860 0.0000000000000000 0.0000000000000000 49
2.3724163043512547  -6.1511181728897046 38.7352529957734788 0.0000000000000000 0.0000000000000000 50
2.4174444298009750  -6.1933173489317905 39.2188512326282321 0.0000000000000000 0.0000000000000000 51
2.4624873410321331  -6.2337196488527606 39.6847658960155059 0.0000000000000000 0.0000000000000000 52
2.5075471772139357  -6.2723851272754860 40.1333087140799307 0.0000000000000000 0.0000000000000000 53
2.5526258619099691  -6.3093731093010295 40.5648190807990119 0.0000000000000000 0.0000000000000000 54
2.5977251078525478  -6.3447422005838447 40.9796613460942467 0.0000000000000000 0.0000000000000000 55
2.6428464230188746  -6.3785502723478249 41.3782220023799425 0.0000000000000000 0.0000000000000000 56
2.6879911178787324  -6.4108544264702640 41.7609068139555433 0.0000000000000000 0.0000000000000000 57
2.7331603136605369  -6.4417109454661157 42.1281379339442950 0.0000000000000000 0.0000000000000000 58
2.7783549514688826  -6.4711752318093225 42.4803510503250834 0.0000000000000000 0.0000000000000000 59
2.8235758020810122  -6.4993017405654356 42.8179925984040750 0.0000000000000000 0.0000000000000000 60
2.8688234762504927  -6.5261439088096420 43.1415170721929258 0.0000000000000000 0.0000000000000000 61
2.9140984353526105  -6.5517540847915114 43.4513844619232756 0.0000000000000000 0.0000000000000000 62
2.9594010022162145  -6.5761834593020900 43.7480578395957238 0.0000000000000000 0.0000000000000000 63
3.0047313719999469  -6.5994820012157351 44.0320011092508850 0.0000000000000000 0.0000000000000000 64
3.0500896229858920  -6.6216983987297393 44.3036769337237857 0.0000000000000000 0.0000000000000000 65
3.0954757271798208  -6.6428800074166876 44.5635448451170859 0.0000000000000000 0.0000000000000000 66
3.1408895606237150  -6.6630728058424316 44.8120595421825101 0.0000000000000000 0.0000000000000000 67
3.1863309133425179  -6.6823213591878883 45.0496693742729732 0.0000000000000000 0.0000000000000000 68
3.2317994988625758  -6.7006687910462173 45.2768150085385059 0.0000000000000000 0.0000000000000000 69
3.2772949632538375  -6.7181567633454833 45.4939282745739320 0.0000000000000000 0.0000000000000000 70
3.3228168936611429  -6.7348254641686571 45.7014311787649845 0.0000000000000000 0.0000000000000000 71
3.3683648263018964  -6.7507136031035451 45.8997350790816228 0.0000000000000000 0.0000000000000000 72
3.4139382539179093  -6.7658584136509319 46.0892400099908173 0.0000000000000000 0.0000000000000000 73
3.4595366326782706  -6.7802956621455968 46.2703341464540117 0.0000000000000000 0.0000000000000000 74
3.5051593885377836  -6.7940596625975900 46.4433933955898510 0.0000000000000000 0.0000000000000000 75
3.5508059230618678  -6.8071832968359098 46.6087811044677238 0.0000000000000000 0.0000000000000000 76
3.5964756187339502  -6.8196980393299214 46.7668478726080323 0.0000000000000000 0.0000000000000000 77
3.6421678437654275  -6.8316339860714876 46.9179314580537294 0.0000000000000000 0.0000000000000000 78
3.6878819564312950  -6.8430198869201568 47.0623567663083548 0.0000000000000000 0.0000000000000000 79
3.7336173089567368  -6.8538831808415495 47.2004359119701036 0.0000000000000000 0.0000000000000000 80
3.7793732509813704  -6.8642500335033816 47.3324683435009561 0.0000000000000000 0.0000000000000000 81
3.8251491326286402  -6.8741453767318355 47.4587410222275849 0.0000000000000000 0.0000000000000000 82
3.8709443072080871  -6.8835929493718950 47.5795286473535697 0.0000000000000000 0.0000000000000000 83
3.9167581335780381  -6.8926153391372686 47.6950939194557861 0.0000000000000000 0.0000000000000000 84
3.9625899781957004  -6.9012340250773807 47.8056878356218959 0.0000000000000000 0.0000000000000000 85
4.0084392168808360  -6.9094694203300620 47.9115500100550094 0.0000000000000000 0.0000000000000000 86
4.0543052363181378  -6.9173409148680101 48.0129090146127595 0.0000000000000000 0.0000000000000000 87
4.1001874353222432  -6.9248669179846338 48.1099827343578852 0.0000000000000000 0.0000000000000000 88
4.1460852258880330  -6.9320649002999879 48.2029787337692710 0.0000000000000000 0.0000000000000000 89
4.1919980340474803  -6.9389514351001402 48.2920946297967077 0.0000000000000000 0.0000000000000000 90
4.2379253005529192  -6.9455422388531929 48.3775184684339763 0.0000000000000000 0.0000000000000000 91
4.2838664814052487  -6.9518522107724436 48.4594291019378005 0.0000000000000000 0.0000000000000000 92
4.3298210482441206  -6.9578954713218177 48.5379965642304896 0.0000000000000000 0.0000000000000000 93
4.3757884886158989  -6.9636853995806565 48.6133824423974019 0.0000000000000000 0.0000000000000000 94
4.4217683061338189  -6.9692346694046554 48.6857402425246022 0.0000000000000000 0.0000000000000000 95
4.4677600205435697  -6.9745552843369465 48.7552157484224011 0.0000000000000000 0.0000000000000000 96
4.5137631677063119  -6.9796586112385537 48.8219473720465942 0.0000000000000000 0.0000000000000000 97
4.5597772995100634  -6.9845554126206393 48.8860664946658829 0.0000000000000000 0.0000000000000000 98
4.6058019837193225  -6.9892558776721678 48.9476977980303189 0.0000000000000000 0.0000000000000000 99
4.6518368037718405  -6.9937696519865735 49.0069595849789437 0.0000000000000000 0.0000000000000000 100
4.6978813585305543  -6.9981058659990065 49.0639640890815514 0.0000000000000000 0.0000000000000000 101
4.7439352619978443  -7.0022731621527559 49.1188177730469349 0.0000000000000000 0.0000000000000000 102
4.7899981429985603  -7.0062797208190712 49.1716216157472061 0.0000000000000000 0.0000000000000000 103
4.8360696448374991  -7.0101332849992879 49.2224713878085396 0.0000000000000000 0.0000000000000000 104
4.8821494249364266  -7.0138411838417962 49.2714579158029551 0.0000000000000000 0.0000000000000000 105
4.9282371544551316  -7.0174103550093534 49.3186673351475946 0.0000000000000000 0.0000000000000000 106
4.9743325179004740  -7.0208473659343102 49.3641813318768072 0.0000000000000000 0.0000000000000000 107
5.0204352127269081  -7.0241584340009986 49.4080773735013707 0.0000000000000000 0.0000000000000000 108
5.0665449489315284  -7.0273494456954388 49.4504289292078809 0.0000000000000000 0.0000000000000000 109
5.1126614486463016  -7.0304259747631495 49.4913056796832862 0.0000000000000000 0.0000000000000000 110
5.1587844457297933  -7.0333932994160051 49.5307737168727513 0.0000000000000000 0.0000000000000000 111
5.2049136853603679  -7.0362564186289891 49.5688957339981329 0.0000000000000000 0.0000000000000000 112
5.2510489236325881  -7.0390200675671757 49.6057312061759887 0.0000000000000000 0.0000000000000000 113
5.2971899271582670  -7.0416887321827613 49.6413365619833797 0.0000000000000000 0.0000000000000000 114
5.3433364726733936  -7.0442666630210766 49.6757653463233879 0.0000000000000000 0.0000000000000000 115
5.3894883466519943  -7.0467578882735289 49.7090683749440672 0.0000000000000000 0.0000000000000000 116
5.4356453449277513  -7.0491662261144521 49.7412938809629566 0.0000000000000000 0.0000000000000000 117
5.4818072723241142  -7.0514952963575084 49.7724876537451451 0.0000000000000000 0.0000000000000000 118
5.5279739422934391  -7.0537485314662742 49.8026931704783635 0.0000000000000000 0.0000000000000000 119
5.5741451765656151  -7.0559291869521505 49.8319517207803528 0.0000000000000000 0.0000000000000000 120
5.6203208048064965  -7.0580403511916412 49.8603025246664657 0.0000000000000000 0.0000000000000000 121
5.6665006642864029  -7.0600849546935596 49.8877828441958400 0.0000000000000000 0.0000000000000000 122
5.7126845995588216  -7.0620657788455627 49.9144280891045753 0.0000000000000000 0.0000000000000000 123
5.7588724621494221  -7.0639854641679847 49.9402719167241713 0.0000000000000000 0.0000000000000000 124
5.8050641102553957  -7.0658465181017931 49.9653463264728686 0.0000000000000000 0.0000000000000000 125
5.8512594084551077  -7.0676513223560740 49.9896817491959098 0.0000000000000000 0.0000000000000000 126
5.8974582274279799  -7.0694021398393794 50.0133071316202376 0.0000000000000000 0.0000000000000000 127
5.9436604436845100  -7.0711011211979837 50.0362500161783998 0.0000000000000000 0.0000000000000000 128
5.9898659393062639  -7.0727503109829408 50.0585366164440515 0.0000000000000000 0.0000000000000000 129
6.0360746016957014  -7.0743516534667723 50.0801918884125996 0.0000000000000000 0.0000000000000000 130
6.0822863233356221  -7.0759069981294562 50.1012395978476235 0.0000000000000000 0.0000000000000000 131
6.1285010015580337  -7.0774181048324714 50.1217023839056850 0.0000000000000000 0.0000000000000000 132
6.1747185383222192  -7.0788866486984752 50.1416018192398241 0.0000000000000000 0.0000000000000000 133
6.2209388400017502  -7.0803142247134812 50.1609584667736499 0.0000000000000000 0.0000000000000000 134
6.2671618171802415  -7.0817023520672393 50.1797919333278699 0.0000000000000000 0.0000000000000000 135
6.3133873844555417  -7.0830524782468913 50.1981209202720748 0.0000000000000000 0.0000000000000000 136
6.3596154602521580  -7.0843659828979550 50.2159632713656094 0.0000000000000000 0.0000000000000000 137
6.4058459666416150  -7.0856441814660389 50.2333360179429462 0.0000000000000000 0.0000000000000000 138
6.4520788291705209  -7.0868883286318596 50.2502554215911488 0.0000000000000000 0.0000000000000000 139
6.4983139766960525  -7.0880996215514998 50.2667370144587338 0.0000000000000000 0.0000000000000000 140
6.5445513412286358  -7.0892792029130858 50.2827956373282206 0.0000000000000000 0.0000000000000000 141
6.5907908577815331  -7.0904281638204942 50.2984454755772674 0.0000000000000000 0.0000000000000000 142
6.6370324642271097  -7.0915475465140760 50.3137000931467639 0.0000000000000000 0.0000000000000000 143
6.6832761011595290  -7.0926383469377861 50.3285724646278325 0.0000000000000000 0.0000000000000000 144
6.7295217117636188  -7.0937015171616356 50.3430750055732688 0.0000000000000000 0.0000000000000000 145
6.7757692416896873  -7.0947379676677711 50.3572196011334583 0.0000000000000000 0.0000000000000000 146
6.8220186389340576  -7.0957485695080962 50.3710176331111015 0.0000000000000000 0.0000000000000000 147
6.8682698537250824  -7.0967341563408564 50.3844800055240256 0.0000000000000000 0.0000000000000000 148
6.9145228384144186  -7.0976955263531867 50.3976171687602061 0.0000000000000000 0.0000000000000000 149
6.9607775473733620  -7.0986334440761540 50.4104391424043570 0.0000000000000000 0.0000000000000000 150
7.0070339368940315  -7.0995486420986058 50.4229555368113438 0.0000000000000000 0.0000000000000000 151
7.0532919650951751  -7.1004418226855464 50.4351755734971476 0.0000000000000000 0.0000000000000000 152
7.0995515918324461  -7.1013136593066442 50.4471081044141059 0.0000000000000000 0.0000000000000000 153
7.1458127786129202  -7.1021647980799969 50.4587616301736546 0.0000000000000000 0.0000000000000000 154
7.1920754885137033  -7.1029958591360458 50.4701443172758815 0.0000000000000000 0.0000000000000000 155
7.2383396861044274  -7.1038074379062461 50.4812640144021572 0.0000000000000000 0.0000000000000000 156
7.2846053373734847  -7.1046001063408157 50.4921282678235670 0.0000000000000000 0.0000000000000000 157
7.3308724096578253  -7.1053744140596198 50.5027443359753647 0.0000000000000000 0.0000000000000000 158
7.3771408715761613  -7.1061308894400685 50.5131192032442016 0.0000000000000000 0.0000000000000000 159
7.4234106929654402  -7.1068700406455818 50.5232595930127033 0.0000000000000000 0.0000000000000000 160
7.4696818448204150  -7.1075923565980812 50.5331719800031891 0.0000000000000000 0.0000000000000000 161
7.5159542992361956  -7.1082983078976802 50.5428626019601737 0.0000000000000000 0.0000000000000000 162
7.5622280293536317  -7.1089883476925904 50.5523374707086006 0.0000000000000000 0.0000000000000000 163
7.6085030093074053  -7.1096629125020865 50.5616023826230503 0.0000000000000000 0.0000000000000000 164
7.6547792141767133  -7.1103224229952087 50.5706629285410401 0.0000000000000000 0.0000000000000000 165
7.7010566199383916  -7.1109672847277423 50.5795245031517595 0.0000000000000000 0.0000000000000000 166
7.7473352034224199  -7.1115978888397677 50.5881923138890528 0.0000000000000000 0.0000000000000000 167
7.7936149422696399  -7.1122146127161372 50.5966713893572830 0.0000000000000000 0.0000000000000000 168
7.8398958148916265  -7.1128178206118537 50.6049665873154737 0.0000000000000000 0.0000000000000000 169
7.8861778004325798  -7.1134078642444472 50.6130826022448161 0.0000000000000000 0.0000000000000000 170
7.9324608787331705  -7.1139850833551233 50.6210239725225364 0.0000000000000000 0.0000000000000000 171
7.9787450302962153  -7.1145498062404968 50.6287950872242760 0.0000000000000000 0.0000000000000000 172
8.0250302362541213  -7.1151023502565565 50.6364001925754508 0.0000000000000000 0.0000000000000000 173
8.0713164783380034  -7.1156430222964069 50.6438433980712688 0.0000000000000000 0.0000000000000000 174
8.1176037388483948  -7.1161721192432621 50.6511286822835487 0.0000000000000000 0.0000000000000000 175
8.1638920006274560  -7.1166899284000964 50.6582598983719166 0.0000000000000000 0.0000000000000000 176
8.2101812470326667  -7.1171967278972144 50.6652407793155675 0.0000000000000000 0.0000000000000000 177
8.2564714619118416  -7.1176927870790188 50.6720749428810109 0.0000000000000000 0.0000000000000000 178
8.3027626295794867  -7.1181783668711009 50.6787658963405221 0.0000000000000000 0.0000000000000000 179
8.3490547347943735  -7.1186537201287567 50.6853170409546223 0.0000000000000000 0.0000000000000000 180
8.3953477627383144  -7.1191190919679492 50.6917316762319885 0.0000000000000000 0.0000000000000000 181
8.4416416989960315  -7.1195747200797070 50.6980130039785166 0.0000000000000000 0.0000000000000000 182
8.4879365295361193  -7.1200208350288516 50.7041641321475254 0.0000000000000000 0.0000000000000000 183
8.5342322406929956  -7.1204576605379213 50.7101880785014529 0.0000000000000000 0.0000000000000000 184
8.5805288191498157  -7.1208854137571267 50.7160877740957687 0.0000000000000000 0.0000000000000000 185
8.6268262519223224  -7.1213043055210417 50.7218660665942593 0.0000000000000000 0.0000000000000000 186
8.6731245263435266  -7.1217145405928353 50.7275257234252308 0.0000000000000000 0.0000000000000000 187
8.7194236300492385  -7.1221163178966620 50.7330694347869553 0.0000000000000000 0.0000000000000000 188
8.7657235509643616  -7.1225098307388786 50.7384998165106751 0.0000000000000000 0.0000000000000000 189
8.8120242772899378  -7.1228952670186843 50.7438194127884685 0.0000000000000000 0.0000000000000000 190
8.8583257974908864  -7.1232728094287570 50.7490306987736375 0.0000000000000000 0.0000000000000000 191
8.9046281002844054  -7.1236426356464495 50.7541360830602173 0.0000000000000000 0.0000000000000000 192
8.9509311746290212  -7.1240049185159844 50.7591379100478122 0.0000000000000000 0.0000000000000000 193
8.9972350097142186  -7.1243598262222232 50.7640384621983358 0.0000000000000000 0.0000000000000000 194
9.0435395949506425  -7.1247075224563714 50.7688399621899435 0.0000000000000000 0.0000000000000000 195
9.0898449199608358  -7.1250481665741088 50.7735445749737124 0.0000000000000000 0.0000000000000000 196
