 # inv_tmp, energy, phys_var, phys_doublon, phys_num, step_i
0.0615913558826632  -0.4720891647550552 3.4236542180115137 0.0000000000000000 12.0000000000000000 1
0.1224366917617100  -0.6699451156759506 3.7127811977468284 0.0000000000000000 12.0000000000000000 2
0.1825356903416551  -0.8702841004392098 4.0726481395176668 0.0000000000000000 12.0000000000000000 3
0.2418940691651869  -1.0723280137012619 4.5037644930502214 0.0000000000000000 12.0000000000000000 4
0.3005234664094938  -1.2752717099768245 5.0055466052110340 0.0000000000000000 12.0000000000000000 5
0.3584411684225510  -1.4782972971835382 5.5763216849012665 0.0000000000000000 12.0000000000000000 6
0.4156696800708291  -1.6805898318454104 6.2133757013309552 0.0000000000000000 12.0000000000000000 7
0.4722361478120378  -1.8813537975250707 6.9130431630476581 0.0000000000000000 12.0000000000000000 8
0.5281716555801160  -2.0798295588765479 7.6708335180716514 0.0000000000000000 12.0000000000000000 9
0.5835104235712411  -2.2753088755374895 8.4815861058562625 0.0000000000000000 12.0000000000000000 10
0.6382889481242245  -2.4671485612474289 9.3396435563374745 0.0000000000000000 12.0000000000000000 11
0.6925451255997509  -2.6547814905429634 10.2390325398245157 0.0000000000000000 12.0000000000000000 12
0.7463174035954421  -2.8377243713505562 11.1736409280811788 0.0000000000000000 12.0000000000000000 13
0.7996439989133932  -3.0155819815420015 12.1373816509736372 0.0000000000000000 12.0000000000000000 14
0.8525622141313771  -3.1880478664717038 13.1243355837630258 0.0000000000000000 12.0000000000000000 15
0.9051078746856336  -3.3549017691558487 14.1288683359396980 0.0000000000000000 12.0000000000000000 16
0.9573148975533468  -3.5160042812405257 15.1457184656048369 0.0000000000000000 12.0000000000000000 17
1.0092149923380169  -3.6712893420260411 16.1700570885194779 0.0000000000000000 12.0000000000000000 18
1.0608374868927259  -3.8207552707294496 17.1975208526903494 0.0000000000000000 12.0000000000000000 19
1.1122092631999712  -3.9644550027526178 18.2242216817353651 0.0000000000000000 12.0000000000000000 20
1.1633547852522916  -4.1024861309971277 19.2467375305204023 0.0000000000000000 12.0000000000000000 21
1.2142961989761361  -4.2349812484793175 20.2620887017816962 0.0000000000000000 12.0000000000000000 22
1.2650534844103813  -4.3620989680446325 21.2677041488128893 0.0000000000000000 12.0000000000000000 23
1.3156446418837333  -4.4840158747379126 22.2613817624132722 0.0000000000000000 12.0000000000000000 24
1.3660858963234985  -4.6009195575207489 23.2412460320537235 0.0000000000000000 12.0000000000000000 25
1.4163919066302353  -4.7130027759860464 24.2057057851430351 0.0000000000000000 12.0000000000000000 26
1.4665759699270118  -4.8204587469733751 25.1534140228545127 0.0000000000000000 12.0000000000000000 27
1.5166502132033428  -4.9234774851093999 26.0832312390871017 0.0000000000000000 12.0000000000000000 28
1.5666257672821886  -5.0222430980561947 26.9941930612872696 0.0000000000000000 12.0000000000000000 29
1.6165129200784387  -5.1169319185451325 27.8854826011226891 0.0000000000000000 12.0000000000000000 30
1.6663212477767073  -5.2077113478110100 28.7564075502346732 0.0000000000000000 12.0000000000000000 31
1.7160597238557114  -5.2947392857646252 29.6063817947193400 0.0000000000000000 12.0000000000000000 32
1.7657368068642088  -5.3781640295589215 30.4349111407282820 0.0000000000000000 12.0000000000000000 33
1.8153605085543505  -5.4581245320530396 31.2415826301677413 0.0000000000000000 12.0000000000000000 34
1.8649384444471000  -5.5347509235099555 32.0260568674160595 0.0000000000000000 12.0000000000000000 35
1.9144778691822897  -5.6081652125613690 32.7880627636136595 0.0000000000000000 12.0000000000000000 36
1.9639856991291751  -5.6784820952674764 33.5273941239897155 0.0000000000000000 12.0000000000000000 37
2.0134685247332476  -5.7458098134753763 34.2439075468029728 0.0000000000000000 12.0000000000000000 38
2.0629326149785947  -5.8102510153048961 34.9375211620290855 0.0000000000000000 12.0000000000000000 39
2.1123839161755806  -5.8719035812571612 35.6082138073796415 0.0000000000000000 12.0000000000000000 40
2.1618280470615772  -5.9308613890253268 36.2560243131562743 0.0000000000000000 12.0000000000000000 41
2.2112702919460321  -5.9872149985227088 36.8810506414158965 0.0000000000000000 12.0000000000000000 42
2.2607155933561560  -6.0410522459078049 37.4834486954809876 0.0000000000000000 12.0000000000000000 43
2.3101685453598098  -6.0924587414871816 38.0634306803746654 0.0000000000000000 12.0000000000000000 44
2.3596333884693941  -6.1415182713530037 38.6212629514995953 0.0000000000000000 12.0000000000000000 45
2.4091140067741472  -6.1883131065224539 39.1572633367389216 0.0000000000000000 12.0000000000000000 46
2.4586139277153980  -6.2329242262720852 39.6717979556983522 0.0000000000000000 12.0000000000000000 47
2.5081363247150539  -6.2754314643987428 40.1652775891278964 0.0000000000000000 12.0000000000000000 48
2.5576840226947564  -6.3159135883985931 40.6381536721801311 0.0000000000000000 12.0000000000000000 49
2.6072595063827393  -6.3544483221534174 41.0909139979192943 0.0000000000000000 12.0000000000000000 50
2.6568649311969375  -6.3911123227661530 41.5240782234405685 0.0000000000000000 12.0000000000000000 51
2.7065021364143607  -6.4259811218112359 41.9381932712522314 0.0000000000000000 12.0000000000000000 52
2.7561726602853760  -6.4591290405676904 42.3338287144044756 0.0000000000000000 12.0000000000000000 53
2.8058777567238873  -6.4906290878828719 42.7115722263658313 0.0000000000000000 12.0000000000000000 54
2.8556184131966225  -6.5205528482582968 43.0720251669065988 0.0000000000000000 12.0000000000000000 55
2.9053953694430028  -6.5489703666291996 43.4157983641786061 0.0000000000000000 12.0000000000000000 56
2.9552091366776754  -6.5759500351849285 43.7435081415621880 0.0000000000000000 12.0000000000000000 57
3.0050600169572239  -6.6015584864943575 44.0557726263177472 0.0000000000000000 12.0000000000000000 58
3.0549481224278172  -6.6258604961918177 44.3532083661069407 0.0000000000000000 12.0000000000000000 59
3.1048733942090436  -6.6489188975673539 44.6364272693840078 0.0000000000000000 12.0000000000000000 60
3.1548356207086354  -6.6707945096031658 44.9060338767205138 0.0000000000000000 12.0000000000000000 61
3.2048344552016768  -6.6915460793112373 45.1626229624368705 0.0000000000000000 12.0000000000000000 62
3.2548694325447816  -6.7112302386545704 45.4067774595072322 0.0000000000000000 12.0000000000000000 63
3.3049399849298617  -6.7299014758709594 45.6390666955537512 0.0000000000000000 12.0000000000000000 64
3.3550454566127934  -6.7476121206554911 45.8600449237775791 0.0000000000000000 12.0000000000000000 65
3.4051851175793137  -6.7644123423858034 46.0702501297819396 0.0000000000000000 12.0000000000000000 66
3.4553581761336867  -6.7803501603810563 46.2702030933049642 0.0000000000000000 12.0000000000000000 67
3.5055637904151595  -6.7954714650603130 46.4604066827619420 0.0000000000000000 12.0000000000000000 68
3.5558010788631984  -6.8098200487972935 46.6413453600712202 0.0000000000000000 12.0000000000000000 69
3.6060691296651637  -6.8234376452454502 46.8134848733715359 0.0000000000000000 12.0000000000000000 70
3.6563670092298413  -6.8363639759210511 46.9772721158219397 0.0000000000000000 12.0000000000000000 71
3.7066937697373863  -6.8486368028730276 47.1331351295940877 0.0000000000000000 12.0000000000000000 72
3.7570484558211112  -6.8602919863303669 47.2814832353372125 0.0000000000000000 12.0000000000000000 73
3.8074301104395465  -6.8713635462934910 47.4227072687295035 0.0000000000000000 12.0000000000000000 74
3.8578377799985724  -6.8818837271212345 47.5571799071696333 0.0000000000000000 12.0000000000000000 75
3.9082705187834903  -6.8918830642542988 47.6852560711433284 0.0000000000000000 12.0000000000000000 76
3.9587273927599695  -6.9013904523072886 47.8072733862895305 0.0000000000000000 12.0000000000000000 77
4.0092074828010098  -6.9104332138509097 47.9235526936462861 0.0000000000000000 12.0000000000000000 78
4.0597098873947282  -6.9190371682925083 48.0343985969583684 0.0000000000000000 12.0000000000000000 79
4.1102337248849441  -6.9272267003450754 48.1401000372559054 0.0000000000000000 12.0000000000000000 80
4.1607781352934818  -6.9350248276512065 48.2409308861548425 0.0000000000000000 12.0000000000000000 81
4.2113422817698165  -6.9424532671989354 48.3371505504786114 0.0000000000000000 12.0000000000000000 82
4.2619253517104001  -6.9495325002303794 48.4290045818512880 0.0000000000000000 12.0000000000000000 83
4.3125265575866321  -6.9562818354018141 48.5167252858684819 0.0000000000000000 12.0000000000000000 84
4.3631451375172103  -6.9627194700051227 48.6005323263101729 0.0000000000000000 12.0000000000000000 85
4.4137803556174129  -6.9688625491061877 48.6806333206299300 0.0000000000000000 12.0000000000000000 86
4.4644315021548460  -6.9747272224952868 48.7572244236352077 0.0000000000000000 12.0000000000000000 87
4.5150978935383508  -6.9803286993793012 48.8304908968754035 0.0000000000000000 12.0000000000000000 88
4.5657788721640600  -6.9856813007750063 48.9006076617801853 0.0000000000000000 12.0000000000000000 89
4.6164738061401023  -6.9907985095880960 48.9677398350485333 0.0000000000000000 12.0000000000000000 90
4.6671820889091515  -6.9956930183836921 49.0320432451838144 0.0000000000000000 12.0000000000000000 91
4.7179031387858652  -7.0003767748720129 49.0936649294104654 0.0000000000000000 12.0000000000000000 92
4.7686363984243467  -7.0048610251471786 49.1527436104958824 0.0000000000000000 12.0000000000000000 93
4.8193813342289449  -7.0091563547291305 49.2094101532461252 0.0000000000000000 12.0000000000000000 94
4.8701374357201326  -7.0132727274677595 49.2637880006478071 0.0000000000000000 12.0000000000000000 95
4.9209042148657218  -7.0172195223757630 49.3159935897992412 0.0000000000000000 12.0000000000000000 96
4.9716812053863855  -7.0210055684619972 49.3661367479120230 0.0000000000000000 12.0000000000000000 97
5.0224679620432537  -7.0246391776410206 49.4143210687778094 0.0000000000000000 12.0000000000000000 98
5.0732640599143117  -7.0281281757969918 49.4606442701836215 0.0000000000000000 12.0000000000000000 99
5.1240690936654003  -7.0314799320814823 49.5051985328295245 0.0000000000000000 12.0000000000000000 100
5.1748826768207330  -7.0347013865253025 49.5480708213548127 0.0000000000000000 12.0000000000000000 101
5.2257044410371796  -7.0377990760439531 49.5893431881168851 0.0000000000000000 12.0000000000000000 102
5.2765340353858319  -7.0407791589155959 49.6290930603934868 0.0000000000000000 12.0000000000000000 103
5.3273711256438334  -7.0436474378087155 49.6673935116936747 0.0000000000000000 12.0000000000000000 104
5.3782153935989383  -7.0464093814350584 49.7043135178712134 0.0000000000000000 12.0000000000000000 105
5.4290665363688033  -7.0490701449009787 49.7399181987320915 0.0000000000000000 12.0000000000000000 106
5.4799242657366500  -7.0516345888281364 49.7742690458239423 0.0000000000000000 12.0000000000000000 107
5.5307883075045563  -7.0541072973117149 49.8074241370826130 0.0000000000000000 12.0000000000000000 108
5.5816584008653773  -7.0564925947817567 49.8394383389978373 0.0000000000000000 12.0000000000000000 109
5.6325342977940265  -7.0587945618303012 49.8703634969415361 0.0000000000000000 12.0000000000000000 110
5.6834157624586057  -7.0610170500643328 49.9002486142836830 0.0000000000000000 12.0000000000000000 111
5.7343025706517121  -7.0631636960416087 49.9291400208977691 0.0000000000000000 12.0000000000000000 112
5.7851945092420678  -7.0652379343436795 49.9570815316365326 0.0000000000000000 12.0000000000000000 113
5.8360913756465012  -7.0672430098377257 49.9841145953345460 0.0000000000000000 12.0000000000000000 114
5.8869929773221354  -7.0691819891760712 50.0102784348707701 0.0000000000000000 12.0000000000000000 115
5.9378991312786349  -7.0710577715796230 50.0356101787998497 0.0000000000000000 12.0000000000000000 116
5.9888096636101738  -7.0728730989490369 50.0601449850375815 0.0000000000000000 12.0000000000000000 117
6.0397244090468103  -7.0746305653448749 50.0839161570619922 0.0000000000000000 12.0000000000000000 118
6.0906432105248332  -7.0763326258757235 50.1069552530684277 0.0000000000000000 12.0000000000000000 119
6.1415659187756404  -7.0779816050310345 50.1292921884950360 0.0000000000000000 12.0000000000000000 120
6.1924923919326567  -7.0795797044931961 50.1509553323119519 0.0000000000000000 12.0000000000000000 121
6.2434224951557740  -7.0811290104614582 50.1719715974477438 0.0000000000000000 12.0000000000000000 122
6.2943561002727799  -7.0826315005182279 50.1923665257050828 0.0000000000000000 12.0000000000000000 123
6.3452930854372260  -7.0840890500665408 50.2121643674986160 0.0000000000000000 12.0000000000000000 124
6.3962333348021811  -7.0855034383657056 50.2313881567293024 0.0000000000000000 12.0000000000000000 125
6.4471767382093059  -7.0868763541904460 50.2500597810910250 0.0000000000000000 12.0000000000000000 126
6.4981231908926782  -7.0882094011373731 50.2682000480886018 0.0000000000000000 12.0000000000000000 127
6.5490725931968372  -7.0895041026010688 50.2858287470300951 0.0000000000000000 12.0000000000000000 128
6.6000248503084551  -7.0907619064407381 50.3029647072404913 0.0000000000000000 12.0000000000000000 129
6.6509798720011259  -7.0919841893570457 50.3196258527295512 0.0000000000000000 12.0000000000000000 130
6.7019375723927253  -7.0931722609974717 50.3358292535321468 0.0000000000000000 12.0000000000000000 131
6.7528978697147943  -7.0943273678074981 50.3515911739271900 0.0000000000000000 12.0000000000000000 132
6.8038606860934765  -7.0954506966437147 50.3669271177278972 0.0000000000000000 12.0000000000000000 133
6.8548259473414870  -7.0965433781639184 50.3818518708246401 0.0000000000000000 12.0000000000000000 134
6.9057935827606078  -7.0976064900084754 50.3963795411512621 0.0000000000000000 12.0000000000000000 135
6.9567635249542947  -7.0986410597860576 50.4105235962339719 0.0000000000000000 12.0000000000000000 136
7.0077357096498902  -7.0996480678762897 50.4242968984735569 0.0000000000000000 12.0000000000000000 137
7.0587100755300192  -7.1006284500608192 50.4377117383010471 0.0000000000000000 12.0000000000000000 138
7.1096865640727573  -7.1015830999937553 50.4507798653394559 0.0000000000000000 12.0000000000000000 139
7.1606651194001492  -7.1025128715215908 50.4635125176949657 0.0000000000000000 12.0000000000000000 140
7.2116456881346709  -7.1034185808621881 50.4759204494940192 0.0000000000000000 12.0000000000000000 141
7.2626282192632949  -7.1043010086517047 50.4880139567752764 0.0000000000000000 12.0000000000000000 142
7.3136126640087449  -7.1051609018678015 50.4998029018381303 0.0000000000000000 12.0000000000000000 143
7.3645989757076373  -7.1059989756369752 50.5112967361442884 0.0000000000000000 12.0000000000000000 144
7.4155871096951449  -7.1068159149332546 50.5225045218612223 0.0000000000000000 12.0000000000000000 145
7.4665770231958675  -7.1076123761751919 50.5334349521326374 0.0000000000000000 12.0000000000000000 146
7.5175686752206108  -7.1083889887274356 50.5440963701537953 0.0000000000000000 12.0000000000000000 147
7.5685620264687721  -7.1091463563129853 50.5544967871266238 0.0000000000000000 12.0000000000000000 148
7.6195570392360521  -7.1098850583416500 50.5646438991630163 0.0000000000000000 12.0000000000000000 149
7.6705536773272218  -7.1106056511599807 50.5745451032017712 0.0000000000000000 12.0000000000000000 150
7.7215519059736941  -7.1113086692276202 50.5842075119999635 0.0000000000000000 12.0000000000000000 151
7.7725516917556510  -7.1119946262246074 50.5936379682554929 0.0000000000000000 12.0000000000000000 152
7.8235530025284881  -7.1126640160939800 50.6028430579146544 0.0000000000000000 12.0000000000000000 153
7.8745558073533610  -7.1133173140236927 50.6118291227144752 0.0000000000000000 12.0000000000000000 154
7.9255600764316139  -7.1139549773716046 50.6206022720070479 0.0000000000000000 12.0000000000000000 155
7.9765657810428969  -7.1145774465370888 50.6291683939097155 0.0000000000000000 12.0000000000000000 156
8.0275728934867630  -7.1151851457825401 50.6375331658221910 0.0000000000000000 12.0000000000000000 157
8.0785813870275724  -7.1157784840079170 50.6457020643497628 0.0000000000000000 12.0000000000000000 158
8.1295912358425397  -7.1163578554811462 50.6536803746681557 0.0000000000000000 12.0000000000000000 159
8.1806024149727143  -7.1169236405271912 50.6614731993645933 0.0000000000000000 12.0000000000000000 160
8.2316149002768011  -7.1174762061782406 50.6690854667864983 0.0000000000000000 12.0000000000000000 161
8.2826286683876056  -7.1180159067874342 50.6765219389278343 0.0000000000000000 12.0000000000000000 162
8.3336436966710092  -7.1185430846083868 50.6837872188810863 0.0000000000000000 12.0000000000000000 163
8.3846599631873016  -7.1190580703425166 50.6908857578810270 0.0000000000000000 12.0000000000000000 164
8.4356774466547684  -7.1195611836562094 50.6978218619648260 0.0000000000000000 12.0000000000000000 165
8.4866961264153975  -7.1200527336696187 50.7045996982716929 0.0000000000000000 12.0000000000000000 166
8.5377159824025881  -7.1205330194187955 50.7112233010035283 0.0000000000000000 12.0000000000000000 167
8.5887369951107537  -7.1210023302928214 50.7176965770668886 0.0000000000000000 12.0000000000000000 168
8.6397591455667229  -7.1214609464473657 50.7240233114152375 0.0000000000000000 12.0000000000000000 169
8.6907824153028042  -7.1219091391961582 50.7302071721095800 0.0000000000000000 12.0000000000000000 170
8.7418067863314715  -7.1223471713816568 50.7362517151135819 0.0000000000000000 12.0000000000000000 171
8.7928322411215465  -7.1227752977261378 50.7421603888394799 0.0000000000000000 12.0000000000000000 172
8.8438587625757883  -7.1231937651644435 50.7479365384592853 0.0000000000000000 12.0000000000000000 173
8.8948863340098328  -7.1236028131593825 50.7535834099948175 0.0000000000000000 12.0000000000000000 174
8.9459149391323933  -7.1240026740008648 50.7591041541998607 0.0000000000000000 12.0000000000000000 175
8.9969445620266466  -7.1243935730897388 50.7645018302464521 0.0000000000000000 12.0000000000000000 176
9.0479751871327441  -7.1247757292071778 50.7697794092265866 0.0000000000000000 12.0000000000000000 177
9.0990067992313772  -7.1251493547705049 50.7749397774802276 0.0000000000000000 12.0000000000000000 178
9.1500393834283340  -7.1255146560762253 50.7799857397595673 0.0000000000000000 12.0000000000000000 179
9.2010729251400036  -7.1258718335310114 50.7849200222387722 0.0000000000000000 12.0000000000000000 180
9.2521074100797378  -7.1262210818713507 50.7897452753784648 0.0000000000000000 12.0000000000000000 181
9.3031428242450858  -7.1265625903724885 50.7944640766528863 0.0000000000000000 12.0000000000000000 182
9.3541791539057542  -7.1268965430472786 50.7990789331475554 0.0000000000000000 12.0000000000000000 183
9.4052163855923521  -7.1272231188355510 50.8035922840350267 0.0000000000000000 12.0000000000000000 184
9.4562545060857861  -7.1275424917844763 50.8080065029351573 0.0000000000000000 12.0000000000000000 185
9.5072935024073271  -7.1278548312205219 50.8123239001669731 0.0000000000000000 12.0000000000000000 186
9.5583333618092841  -7.1281603019133470 50.8165467248972718 0.0000000000000000 12.0000000000000000 187
9.6093740717662364  -7.1284590642322518 50.8206771671928337 0.0000000000000000 12.0000000000000000 188
9.6604156199668196  -7.1287512742954071 50.8247173599803119 0.0000000000000000 12.0000000000000000 189
9.7114579943060058  -7.1290370841124497 50.8286693809199619 0.0000000000000000 12.0000000000000000 190
9.7625011828778518  -7.1293166417206661 50.8325352541971967 0.0000000000000000 12.0000000000000000 191
9.8135451739687092  -7.1295900913151868 50.8363169522366576 0.0000000000000000 12.0000000000000000 192
9.8645899560508354  -7.1298575733735081 50.8400163973430139 0.0000000000000000 12.0000000000000000 193
9.9156355177763924  -7.1301192247746172 50.8436354632722782 0.0000000000000000 12.0000000000000000 194
