 # inv_tmp, energy, phys_var, phys_doublon, phys_num, step_i
0.0277100627600752  -0.1759462371774684 7.4729846894044227 0.0000000000000000 0.0000000000000000 1
0.0552620983714844  -0.3823401187390488 7.6305579956101646 0.0000000000000000 0.0000000000000000 2
0.0826569253448348  -0.5891989687338988 7.8570879449306563 0.0000000000000000 0.0000000000000000 3
0.1098960617693288  -0.7960572126047111 8.1525159455320857 0.0000000000000000 0.0000000000000000 4
0.1369816867413245  -1.0024592183913419 8.5162856151974857 0.0000000000000000 0.0000000000000000 5
0.1639165881731482  -1.2079659157142457 8.9473592398553894 0.0000000000000000 0.0000000000000000 6
0.1907040997690540  -1.4121606035436278 9.4442424550270694 0.0000000000000000 0.0000000000000000 7
0.2173480304697063  -1.6146537211436107 10.0050157649362852 0.0000000000000000 0.0000000000000000 8
0.2438525898972702  -1.8150864322704501 10.6273713113452892 0.0000000000000000 0.0000000000000000 9
0.2702223132758134  -2.0131329554054442 11.3086532359818435 0.0000000000000000 0.0000000000000000 10
0.2964619889836124  -2.2085016545446434 12.0459000407243426 0.0000000000000000 0.0000000000000000 11
0.3225765913677978  -2.4009349786807670 12.8358875187077537 0.0000000000000000 0.0000000000000000 12
0.3485712207863509  -2.5902083980023467 13.6751710774635065 0.0000000000000000 0.0000000000000000 13
0.3744510521125487  -2.7761285274317964 14.5601265673047227 0.0000000000000000 0.0000000000000000 14
0.4002212922138952  -2.9585306520042072 15.4869890294801476 0.0000000000000000 0.0000000000000000 15
0.4258871462619223  -3.1372758742990339 16.4518890583243440 0.0000000000000000 0.0000000000000000 16
0.4514537921859606  -3.3122480938091039 17.4508867060600465 0.0000000000000000 0.0000000000000000 17
0.4769263621805065  -3.4833510049812659 18.4800030331572245 0.0000000000000000 0.0000000000000000 18
0.5023099299224055  -3.6505052684705128 19.5352495153261074 0.0000000000000000 0.0000000000000000 19
0.5276095020460716  -3.8136459727883047 20.6126555625351635 0.0000000000000000 0.0000000000000000 20
0.5528300124460557  -3.9727204645900125 21.7082943945549616 0.0000000000000000 0.0000000000000000 21
0.5779763181022491  -4.1276865883906435 22.8183074644347030 0.0000000000000000 0.0000000000000000 22
0.6030531953254625  -4.2785113428910790 23.9389275411946869 0.0000000000000000 0.0000000000000000 23
0.6280653355707043  -4.4251699329717420 25.0665004712194062 0.0000000000000000 0.0000000000000000 24
0.6530173402345680  -4.5676451746896678 26.1975055482729147 0.0000000000000000 0.0000000000000000 25
0.6779137141176623  -4.7059271955879050 27.3285743460217105 0.0000000000000000 0.0000000000000000 26
0.7027588574738276  -4.8400133640593657 28.4565078124302850 0.0000000000000000 0.0000000000000000 27
0.7275570567711438  -4.9699083787665632 29.5782913968535013 0.0000000000000000 0.0000000000000000 28
0.7523124744471114  -5.0956244512963682 30.6911079791884092 0.0000000000000000 0.0000000000000000 29
0.7770291380485018  -5.2171815212608248 31.7923483942713538 0.0000000000000000 0.0000000000000000 30
0.8017109292061990  -5.3346074518259217 32.8796193897911309 0.0000000000000000 0.0000000000000000 31
0.8263615729112165  -5.4479381640802682 33.9507489168403538 0.0000000000000000 0.0000000000000000 32
0.8509846275367073  -5.5572176797671755 35.0037887226457300 0.0000000000000000 0.0000000000000000 33
0.8755834760003389  -5.6624980528683215 36.0370142887863807 0.0000000000000000 0.0000000000000000 34
0.9001613183905277  -5.7638391806912379 37.0489222296599294 0.0000000000000000 0.0000000000000000 35
0.9247211662971405  -5.8613084940074272 38.0382253303750417 0.0000000000000000 0.0000000000000000 36
0.9492658389999725  -5.9549805331213985 39.0038454571181816 0.0000000000000000 0.0000000000000000 37
0.9737979615829927  -6.0449364223924125 39.9449046141244324 0.0000000000000000 0.0000000000000000 38
0.9983199649639934  -6.1312632596837124 40.8607144486747487 0.0000000000000000 0.0000000000000000 39
1.0228340877613817  -6.2140534395870670 41.7507645191317494 0.0000000000000000 0.0000000000000000 40
1.0473423798645372  -6.2934039302466154 42.6147096418814328 0.0000000000000000 0.0000000000000000 41
1.0718467075322846  -6.3694155234132372 43.4523566227780407 0.0000000000000000 0.0000000000000000 42
1.0963487598154602  -6.4421920762474496 44.2636506593069328 0.0000000000000000 0.0000000000000000 43
1.1208500560833707  -6.5118397616018022 45.0486616733775236 0.0000000000000000 0.0000000000000000 44
1.1453519544287083  -6.5784663412839093 45.8075708036279892 0.0000000000000000 0.0000000000000000 45
1.1698556607294015  -6.6421804743315676 46.5406572524113500 0.0000000000000000 0.0000000000000000 46
1.1943622381571131  -6.7030910697921113 47.2482856480398610 0.0000000000000000 0.0000000000000000 47
1.2188726169387016  -6.7613066910239326 47.9308940488936770 0.0000000000000000 0.0000000000000000 48
1.2433876041972642  -6.8169350162286380 48.5889826838252148 0.0000000000000000 0.0000000000000000 49
1.2679078937217823  -6.8700823578459920 49.2231034937687397 0.0000000000000000 0.0000000000000000 50
1.2924340755376191  -6.9208532416406801 49.8338505131580831 0.0000000000000000 0.0000000000000000 51
1.3169666451731354  -6.9693500447975341 50.4218511069626487 0.0000000000000000 0.0000000000000000 52
1.3415060125396223  -7.0156726911197680 50.9877580599684137 0.0000000000000000 0.0000000000000000 53
1.3660525103621399  -7.0599184004788009 51.5322424992720300 0.0000000000000000 0.0000000000000000 54
1.3906064021171922  -7.1021814889716195 52.0559876186215860 0.0000000000000000 0.0000000000000000 55
1.4151678894493598  -7.1425532157736260 52.5596831639407824 0.0000000000000000 0.0000000000000000 56
1.4397371190529176  -7.1811216724002040 53.0440206327719608 0.0000000000000000 0.0000000000000000 57
1.4643141890161584  -7.2179717099770304 53.5096891361085909 0.0000000000000000 0.0000000000000000 58
1.4888991546356933  -7.2531849001368238 53.9573718687943327 0.0000000000000000 0.0000000000000000 59
1.5134920337156144  -7.2868395252802776 54.3877431339951727 0.0000000000000000 0.0000000000000000 60
1.5380928113722494  -7.3190105941360795 54.8014658678776669 0.0000000000000000 0.0000000000000000 61
1.5627014443695169  -7.3497698788067023 55.1991896122595307 0.0000000000000000 0.0000000000000000 62
1.5873178650128450  -7.3791859697744675 55.5815488853794761 0.0000000000000000 0.0000000000000000 63
1.6119419846314333  -7.4073243456506210 55.9491619038428638 0.0000000000000000 0.0000000000000000 64
1.6365736966794935  -7.4342474547659805 56.3026296120505734 0.0000000000000000 0.0000000000000000 65
1.6612128794872392  -7.4600148060157032 56.6425349788598282 0.0000000000000000 0.0000000000000000 66
1.6858593986918853  -7.4846830666751210 56.9694425247351859 0.0000000000000000 0.0000000000000000 67
1.7105131093779693  -7.5083061651930851 57.2838980461282148 0.0000000000000000 0.0000000000000000 68
1.7351738579550109  -7.5309353972401949 57.5864285072061790 0.0000000000000000 0.0000000000000000 69
1.7598414837989840  -7.5526195335393975 57.8775420722774498 0.0000000000000000 0.0000000000000000 70
1.7845158206823852  -7.5734049282344280 58.1577282553010591 0.0000000000000000 0.0000000000000000 71
1.8091966980158960  -7.5933356267571437 58.4274581656926273 0.0000000000000000 0.0000000000000000 72
1.8338839419228259  -7.6124534723386628 58.6871848322437231 0.0000000000000000 0.0000000000000000 73
1.8585773761657205  -7.6307982104714664 58.9373435893425324 0.0000000000000000 0.0000000000000000 74
1.8832768229427626  -7.6484075907723676 59.1783525118345750 0.0000000000000000 0.0000000000000000 75
1.9079821035699109  -7.6653174658199843 59.4106128867894725 0.0000000000000000 0.0000000000000000 76
1.9326930390631147  -7.6815618866472875 59.6345097121633430 0.0000000000000000 0.0000000000000000 77
1.9574094506334467  -7.6971731946609774 59.8504122138713086 0.0000000000000000 0.0000000000000000 78
1.9821311601066038  -7.7121821098369532 60.0586743741323303 0.0000000000000000 0.0000000000000000 79
2.0068579902769312  -7.7266178151056994 60.2596354651260668 0.0000000000000000 0.0000000000000000 80
2.0315897652049482  -7.7405080368955854 60.4536205830323468 0.0000000000000000 0.0000000000000000 81
2.0563263104662899  -7.7538791218459702 60.6409411784142094 0.0000000000000000 0.0000000000000000 82
2.0810674533589912  -7.7667561097379085 60.8218955796765286 0.0000000000000000 0.0000000000000000 83
2.1058130230751808  -7.7791628027186572 60.9967695069926634 0.0000000000000000 0.0000000000000000 84
2.1305628508424688  -7.7911218309182857 61.1658365746551311 0.0000000000000000 0.0000000000000000 85
2.1553167700395939  -7.8026547145737268 61.3293587802869737 0.0000000000000000 0.0000000000000000 86
2.1800746162903111  -7.8137819227877126 61.4875869797529120 0.0000000000000000 0.0000000000000000 87
2.2048362275389213  -7.8245229290587499 61.6407613469505407 0.0000000000000000 0.0000000000000000 88
2.2296014441103744  -7.8348962637235751 61.7891118179434784 0.0000000000000000 0.0000000000000000 89
2.2543701087574637  -7.8449195634563260 61.9328585191327292 0.0000000000000000 0.0000000000000000 90
2.2791420666972417  -7.8546096179692944 62.0722121793544446 0.0000000000000000 0.0000000000000000 91
2.3039171656384747  -7.8639824140590928 62.2073745259478699 0.0000000000000000 0.0000000000000000 92
2.3286952558016769  -7.8730531771395809 62.3385386649625701 0.0000000000000000 0.0000000000000000 93
2.3534761899330223  -7.8818364103994947 62.4658894457732572 0.0000000000000000 0.0000000000000000 94
2.3782598233132135  -7.8903459317183531 62.5896038104471657 0.0000000000000000 0.0000000000000000 95
2.4030460137622236  -7.8985949084693612 62.7098511282679141 0.0000000000000000 0.0000000000000000 96
2.4278346216406694  -7.9065958903328095 62.8267935158629527 0.0000000000000000 0.0000000000000000 97
2.4526255098484366  -7.9143608402377321 62.9405861434112595 0.0000000000000000 0.0000000000000000 98
2.4774185438210830  -7.9219011635441188 63.0513775274294304 0.0000000000000000 0.0000000000000000 99
2.5022135915244350  -7.9292277355719651 63.1593098106430801 0.0000000000000000 0.0000000000000000 100
2.5270105234477267  -7.9363509275779727 63.2645190294570341 0.0000000000000000 0.0000000000000000 101
2.5518092125955683  -7.9432806312748436 63.3671353695342319 0.0000000000000000 0.0000000000000000 102
2.5766095344789561  -7.9500262819828018 63.4672834099890508 0.0000000000000000 0.0000000000000000 103
2.6014113671055195  -7.9565968804975213 63.5650823566899206 0.0000000000000000 0.0000000000000000 104
2.6262145909691412  -7.9630010137536296 63.6606462651550515 0.0000000000000000 0.0000000000000000 105
2.6510190890390577  -7.9692468743579763 63.7540842535109746 0.0000000000000000 0.0000000000000000 106
2.6758247467485474  -7.9753422790621977 63.8455007059672468 0.0000000000000000 0.0000000000000000 107
2.7006314519832513  -7.9812946862397682 63.9349954672459262 0.0000000000000000 0.0000000000000000 108
2.7254390950691980  -7.9871112124283563 64.0226640283857904 0.0000000000000000 0.0000000000000000 109
2.7502475687605581  -7.9927986479945883 64.1085977043254900 0.0000000000000000 0.0000000000000000 110
2.7750567682271736  -7.9983634719743826 64.1928838036516396 0.0000000000000000 0.0000000000000000 111
2.7998665910418610  -8.0038118661386584 64.2756057908813005 0.0000000000000000 0.0000000000000000 112
2.8246769371675278  -8.0091497283309447 64.3568434416311987 0.0000000000000000 0.0000000000000000 113
2.8494877089441015  -8.0143826851202871 64.4366729910102976 0.0000000000000000 0.0000000000000000 114
2.8742988110752745  -8.0195161038100480 64.5151672755553278 0.0000000000000000 0.0000000000000000 115
2.8991101506150798  -8.0245551038405711 64.5923958690154336 0.0000000000000000 0.0000000000000000 116
2.9239216369542982  -8.0295045676210499 64.6684252122749399 0.0000000000000000 0.0000000000000000 117
2.9487331818066909  -8.0343691508238280 64.7433187376918795 0.0000000000000000 0.0000000000000000 118
2.9735446991950734  -8.0391532921720099 64.8171369881142141 0.0000000000000000 0.0000000000000000 119
2.9983561054372152  -8.0438612227494559 64.8899377308243430 0.0000000000000000 0.0000000000000000 120
3.0231673191315767  -8.0484969748601287 64.9617760666492359 0.0000000000000000 0.0000000000000000 121
3.0479782611428758  -8.0530643904623158 65.0327045344629511 0.0000000000000000 0.0000000000000000 122
3.0727888545874915  -8.0575671292014039 65.1027732112966078 0.0000000000000000 0.0000000000000000 123
3.0975990248186922  -8.0620086760635097 65.1720298082602767 0.0000000000000000 0.0000000000000000 124
3.1224086994116975  -8.0663923486708349 65.2405197624723030 0.0000000000000000 0.0000000000000000 125
3.1472178081485680  -8.0707213042383916 65.3082863251810153 0.0000000000000000 0.0000000000000000 126
3.1720262830029196  -8.0749985462104199 65.3753706462558739 0.0000000000000000 0.0000000000000000 127
3.1968340581244616  -8.0792269305938422 65.4418118552160450 0.0000000000000000 0.0000000000000000 128
3.2216410698233626  -8.0834091720049202 65.5076471389565711 0.0000000000000000 0.0000000000000000 129
3.2464472565544216  -8.0875478494444764 65.5729118163249609 0.0000000000000000 0.0000000000000000 130
3.2712525589010695  -8.0916454118159340 65.6376394096936338 0.0000000000000000 0.0000000000000000 131
3.2960569195591685  -8.0957041831998175 65.7018617136664886 0.0000000000000000 0.0000000000000000 132
3.3208602833206227  -8.0997263678973646 65.7656088610525984 0.0000000000000000 0.0000000000000000 133
3.3456625970567897  -8.1037140552553204 65.8289093862322261 0.0000000000000000 0.0000000000000000 134
3.3704638097016861  -8.1076692242831765 65.8917902860355440 0.0000000000000000 0.0000000000000000 135
3.3952638722349784  -8.1115937480736395 65.9542770782492482 0.0000000000000000 0.0000000000000000 136
3.4200627376647597  -8.1154893980362814 66.0163938578595975 0.0000000000000000 0.0000000000000000 137
3.4448603610100963  -8.1193578479540296 66.0781633511367374 0.0000000000000000 0.0000000000000000 138
3.4696566992833402  -8.1232006778714094 66.1396069676596312 0.0000000000000000 0.0000000000000000 139
3.4944517114722005  -8.1270193778230642 66.2007448503762106 0.0000000000000000 0.0000000000000000 140
3.5192453585215597  -8.1308153514106216 66.2615959237899119 0.0000000000000000 0.0000000000000000 141
3.5440376033150311  -8.1345899192354381 66.3221779403580172 0.0000000000000000 0.0000000000000000 142
3.5688284106562391  -8.1383443221945413 66.3825075251852752 0.0000000000000000 0.0000000000000000 143
3.5936177472498270  -8.1420797246464396 66.4426002190900959 0.0000000000000000 0.0000000000000000 144
3.6184055816821656  -8.1457972174532980 66.5024705201189335 0.0000000000000000 0.0000000000000000 145
3.6431918844017610  -8.1494978209056228 66.5621319235800541 0.0000000000000000 0.0000000000000000 146
3.6679766276993537  -8.1531824875351298 66.6215969606643768 0.0000000000000000 0.0000000000000000 147
3.6927597856876906  -8.1568521048213505 66.6808772357182704 0.0000000000000000 0.0000000000000000 148
3.7175413342809676  -8.1605074977970631 66.7399834622299153 0.0000000000000000 0.0000000000000000 149
3.7423212511739270  -8.1641494315575223 66.7989254975879163 0.0000000000000000 0.0000000000000000 150
3.7670995158206040  -8.1677786136780668 66.8577123766678483 0.0000000000000000 0.0000000000000000 151
3.7918761094127094  -8.1713956965445043 66.9163523442997530 0.0000000000000000 0.0000000000000000 152
3.8166510148576447  -8.1750012796004370 66.9748528866671791 0.0000000000000000 0.0000000000000000 153
3.8414242167561379  -8.1785959115154228 67.0332207616854561 0.0000000000000000 0.0000000000000000 154
3.8661957013794863  -8.1821800922777346 67.0914620284047203 0.0000000000000000 0.0000000000000000 155
3.8909654566464180  -8.1857542752151531 67.1495820754806800 0.0000000000000000 0.0000000000000000 156
3.9157334720995420  -8.1893188689472147 67.2075856487543888 0.0000000000000000 0.0000000000000000 157
3.9404997388813991  -8.1928742392719389 67.2654768779790544 0.0000000000000000 0.0000000000000000 158
3.9652642497101040  -8.1964207109900933 67.3232593027312021 0.0000000000000000 0.0000000000000000 159
3.9900269988545691  -8.1999585696697146 67.3809358975403399 0.0000000000000000 0.0000000000000000 160
4.0147879821093158  -8.2034880633535998 67.4385090962701952 0.0000000000000000 0.0000000000000000 161
4.0395471967688730  -8.2070094042121902 67.4959808157822749 0.0000000000000000 0.0000000000000000 162
4.0643046416017503  -8.2105227701442214 67.5533524789108526 0.0000000000000000 0.0000000000000000 163
4.0890603168239954  -8.2140283063273802 67.6106250367770940 0.0000000000000000 0.0000000000000000 164
4.1138142240723479  -8.2175261267209923 67.6677989904679578 0.0000000000000000 0.0000000000000000 165
4.1385663663769634  -8.2210163155227338 67.7248744121042989 0.0000000000000000 0.0000000000000000 166
4.1633167481337470  -8.2244989285812125 67.7818509653209276 0.0000000000000000 0.0000000000000000 167
4.1880653750762766  -8.2279739947661383 67.8387279251804785 0.0000000000000000 0.0000000000000000 168
4.2128122542473339  -8.2314415172977018 67.8955041975405180 0.0000000000000000 0.0000000000000000 169
4.2375573939700475  -8.2349014750366916 67.9521783378932724 0.0000000000000000 0.0000000000000000 170
4.2623008038186674  -8.2383538237367979 68.0087485696955127 0.0000000000000000 0.0000000000000000 171
4.2870424945889605  -8.2417984972604170 68.0652128022048402 0.0000000000000000 0.0000000000000000 172
4.3117824782682623  -8.2452354087592230 68.1215686478378188 0.0000000000000000 0.0000000000000000 173
4.3365207680051867  -8.2486644518206855 68.1778134390644510 0.0000000000000000 0.0000000000000000 174
4.3612573780790047  -8.2520855015816252 68.2339442448522391 0.0000000000000000 0.0000000000000000 175
4.3859923238687175  -8.2554984158098392 68.2899578866720560 0.0000000000000000 0.0000000000000000 176
4.4107256218218369  -8.2589030359547415 68.3458509540774912 0.0000000000000000 0.0000000000000000 177
4.4354572894228852  -8.2622991881679404 68.4016198198687562 0.0000000000000000 0.0000000000000000 178
4.4601873451616418  -8.2656866842945718 68.4572606548503018 0.0000000000000000 0.0000000000000000 179
4.4849158085011585  -8.2690653228361590 68.5127694421920665 0.0000000000000000 0.0000000000000000 180
4.5096426998455446  -8.2724348898857443 68.5681419914025554 0.0000000000000000 0.0000000000000000 181
4.5343680405075775  -8.2757951600359796 68.6233739519217352 0.0000000000000000 0.0000000000000000 182
4.5590918526761302  -8.2791458972607685 68.6784608263411371 0.0000000000000000 0.0000000000000000 183
4.5838141593834596  -8.2824868557711007 68.7333979832577029 0.0000000000000000 0.0000000000000000 184
4.6085349844723602  -8.2858177808455853 68.7881806697681100 0.0000000000000000 0.0000000000000000 185
4.6332543525632452  -8.2891384096362515 68.8428040236089345 0.0000000000000000 0.0000000000000000 186
4.6579722890211261  -8.2924484719500491 68.8972630849485768 0.0000000000000000 0.0000000000000000 187
4.6826888199225740  -8.2957476910065111 68.9515528078352702 0.0000000000000000 0.0000000000000000 188
4.7074039720226448  -8.2990357841720517 69.0056680713069284 0.0000000000000000 0.0000000000000000 189
4.7321177727218267  -8.3023124636712193 69.0596036901660568 0.0000000000000000 0.0000000000000000 190
4.7568302500330137  -8.3055774372753426 69.1133544254247454 0.0000000000000000 0.0000000000000000 191
4.7815414325485524  -8.3088304089689178 69.1669149944234363 0.0000000000000000 0.0000000000000000 192
4.8062513494073764  -8.3120710795940376 69.2202800806268073 0.0000000000000000 0.0000000000000000 193
4.8309600302622639  -8.3152991474732261 69.2734443431006213 0.0000000000000000 0.0000000000000000 194
4.8556675052472391  -8.3185143090109825 69.3264024256729954 0.0000000000000000 0.0000000000000000 195
4.8803738049451608  -8.3217162592742682 69.3791489657827753 0.0000000000000000 0.0000000000000000 196
