 # inv_tmp, energy, phys_var, phys_doublon, phys_num, step_i
0.080951  -0.706177 9.066861 0.000000 0.000000 1
0.157520  -1.393650 10.389043 0.000000 0.000000 2
0.230332  -2.049404 12.342014 0.000000 0.000000 3
0.300038  -2.663303 14.820247 0.000000 0.000000 4
0.367224  -3.231306 17.704720 0.000000 0.000000 5
0.432377  -3.753535 20.876787 0.000000 0.000000 6
0.495890  -4.232074 24.225036 0.000000 0.000000 7
0.558087  -4.669387 27.647917 0.000000 0.000000 8
0.619247  -5.067553 31.055135 0.000000 0.000000 9
0.679621  -5.428170 34.369308 0.000000 0.000000 10
0.739431  -5.752596 37.527820 0.000000 0.000000 11
0.798875  -6.042261 40.484172 0.000000 0.000000 12
0.858117  -6.298893 43.208149 0.000000 0.000000 13
0.917293  -6.524607 45.684622 0.000000 0.000000 14
0.976503  -6.721861 47.911254 0.000000 0.000000 15
1.035822  -6.893350 49.895588 0.000000 0.000000 16
1.095295  -7.041858 51.652063 0.000000 0.000000 17
1.154952  -7.170137 53.199317 0.000000 0.000000 18
1.214803  -7.280799 54.557997 0.000000 0.000000 19
1.274850  -7.376251 55.749135 0.000000 0.000000 20
1.335086  -7.458659 56.793041 0.000000 0.000000 21
1.395499  -7.529935 57.708624 0.000000 0.000000 22
1.456077  -7.591741 58.513043 0.000000 0.000000 23
1.516803  -7.645510 59.221575 0.000000 0.000000 24
1.577662  -7.692467 59.847642 0.000000 0.000000 25
1.638639  -7.733648 60.402922 0.000000 0.000000 26
1.699720  -7.769935 60.897500 0.000000 0.000000 27
1.760892  -7.802068 61.340050 0.000000 0.000000 28
1.822142  -7.830675 61.738007 0.000000 0.000000 29
1.883459  -7.856282 62.097736 0.000000 0.000000 30
1.944834  -7.879335 62.424679 0.000000 0.000000 31
2.006256  -7.900211 62.723493 0.000000 0.000000 32
2.067719  -7.919228 62.998165 0.000000 0.000000 33
2.129215  -7.936656 63.252110 0.000000 0.000000 34
2.190736  -7.952725 63.488264 0.000000 0.000000 35
2.252278  -7.967631 63.709147 0.000000 0.000000 36
2.313835  -7.981540 63.916933 0.000000 0.000000 37
2.375401  -7.994598 64.113496 0.000000 0.000000 38
2.436973  -8.006925 64.300455 0.000000 0.000000 39
2.498545  -8.018629 64.479213 0.000000 0.000000 40
2.560116  -8.029800 64.650984 0.000000 0.000000 41
2.621681  -8.040516 64.816820 0.000000 0.000000 42
2.683236  -8.050847 64.977634 0.000000 0.000000 43
2.744781  -8.060849 65.134219 0.000000 0.000000 44
2.806311  -8.070575 65.287259 0.000000 0.000000 45
2.867824  -8.080068 65.437348 0.000000 0.000000 46
2.929319  -8.089366 65.585000 0.000000 0.000000 47
2.990794  -8.098501 65.730653 0.000000 0.000000 48
3.052246  -8.107501 65.874687 0.000000 0.000000 49
3.113675  -8.116391 66.017422 0.000000 0.000000 50
3.175079  -8.125190 66.159132 0.000000 0.000000 51
3.236456  -8.133916 66.300042 0.000000 0.000000 52
3.297806  -8.142582 66.440340 0.000000 0.000000 53
3.359128  -8.151202 66.580180 0.000000 0.000000 54
3.420421  -8.159783 66.719681 0.000000 0.000000 55
3.481685  -8.168335 66.858936 0.000000 0.000000 56
3.542919  -8.176862 66.998010 0.000000 0.000000 57
3.604122  -8.185369 67.136947 0.000000 0.000000 58
3.665295  -8.193858 67.275769 0.000000 0.000000 59
3.726438  -8.202331 67.414481 0.000000 0.000000 60
3.787551  -8.210789 67.553071 0.000000 0.000000 61
3.848633  -8.219230 67.691511 0.000000 0.000000 62
3.909686  -8.227653 67.829762 0.000000 0.000000 63
3.970709  -8.236056 67.967773 0.000000 0.000000 64
4.031703  -8.244435 68.105484 0.000000 0.000000 65
4.092670  -8.252787 68.242824 0.000000 0.000000 66
4.153608  -8.261109 68.379718 0.000000 0.000000 67
4.214520  -8.269394 68.516083 0.000000 0.000000 68
4.275406  -8.277639 68.651832 0.000000 0.000000 69
4.336267  -8.285838 68.786873 0.000000 0.000000 70
4.397103  -8.293987 68.921114 0.000000 0.000000 71
4.457917  -8.302079 69.054458 0.000000 0.000000 72
4.518710  -8.310108 69.186810 0.000000 0.000000 73
4.579481  -8.318070 69.318073 0.000000 0.000000 74
4.640234  -8.325959 69.448150 0.000000 0.000000 75
4.700968  -8.333769 69.576947 0.000000 0.000000 76
4.761685  -8.341494 69.704373 0.000000 0.000000 77
4.822386  -8.349130 69.830336 0.000000 0.000000 78
4.883073  -8.356671 69.954750 0.000000 0.000000 79
4.943748  -8.364112 70.077531 0.000000 0.000000 80
5.004410  -8.371449 70.198601 0.000000 0.000000 81
5.065062  -8.378677 70.317883 0.000000 0.000000 82
5.125704  -8.385792 70.435309 0.000000 0.000000 83
5.186339  -8.392790 70.550811 0.000000 0.000000 84
5.246967  -8.399668 70.664330 0.000000 0.000000 85
5.307590  -8.406421 70.775810 0.000000 0.000000 86
5.368209  -8.413048 70.885201 0.000000 0.000000 87
5.428824  -8.419545 70.992458 0.000000 0.000000 88
5.489437  -8.425910 71.097543 0.000000 0.000000 89
5.550050  -8.432142 71.200421 0.000000 0.000000 90
5.610662  -8.438238 71.301064 0.000000 0.000000 91
5.671276  -8.444197 71.399449 0.000000 0.000000 92
5.731892  -8.450018 71.495557 0.000000 0.000000 93
5.792511  -8.455700 71.589376 0.000000 0.000000 94
5.853134  -8.461243 71.680897 0.000000 0.000000 95
5.913761  -8.466646 71.770117 0.000000 0.000000 96
5.974394  -8.471910 71.857036 0.000000 0.000000 97
6.035034  -8.477035 71.941660 0.000000 0.000000 98
6.095680  -8.482022 72.023999 0.000000 0.000000 99
6.156333  -8.486870 72.104064 0.000000 0.000000 100
6.216995  -8.491583 72.181874 0.000000 0.000000 101
6.277665  -8.496159 72.257447 0.000000 0.000000 102
6.338344  -8.500602 72.330808 0.000000 0.000000 103
6.399033  -8.504912 72.401982 0.000000 0.000000 104
6.459731  -8.509091 72.470998 0.000000 0.000000 105
6.520440  -8.513142 72.537887 0.000000 0.000000 106
6.581160  -8.517066 72.602683 0.000000 0.000000 107
6.641890  -8.520865 72.665420 0.000000 0.000000 108
6.702631  -8.524542 72.726137 0.000000 0.000000 109
6.763383  -8.528099 72.784871 0.000000 0.000000 110
6.824147  -8.531538 72.841662 0.000000 0.000000 111
6.884923  -8.534861 72.896551 0.000000 0.000000 112
6.945709  -8.538073 72.949580 0.000000 0.000000 113
7.006508  -8.541174 73.000793 0.000000 0.000000 114
7.067319  -8.544168 73.050232 0.000000 0.000000 115
7.128141  -8.547057 73.097941 0.000000 0.000000 116
7.188975  -8.549844 73.143964 0.000000 0.000000 117
7.249820  -8.552531 73.188346 0.000000 0.000000 118
7.310678  -8.555122 73.231131 0.000000 0.000000 119
7.371546  -8.557619 73.272363 0.000000 0.000000 120
7.432427  -8.560024 73.312087 0.000000 0.000000 121
7.493319  -8.562341 73.350345 0.000000 0.000000 122
7.554222  -8.564572 73.387182 0.000000 0.000000 123
7.615136  -8.566719 73.422641 0.000000 0.000000 124
7.676062  -8.568785 73.456764 0.000000 0.000000 125
7.736998  -8.570773 73.489593 0.000000 0.000000 126
7.797945  -8.572685 73.521169 0.000000 0.000000 127
7.858902  -8.574524 73.551534 0.000000 0.000000 128
7.919870  -8.576292 73.580726 0.000000 0.000000 129
7.980848  -8.577991 73.608785 0.000000 0.000000 130
8.041836  -8.579623 73.635750 0.000000 0.000000 131
8.102834  -8.581192 73.661657 0.000000 0.000000 132
8.163842  -8.582699 73.686544 0.000000 0.000000 133
8.224859  -8.584147 73.710446 0.000000 0.000000 134
8.285885  -8.585536 73.733398 0.000000 0.000000 135
8.346920  -8.586871 73.755434 0.000000 0.000000 136
8.407964  -8.588152 73.776587 0.000000 0.000000 137
8.469016  -8.589381 73.796889 0.000000 0.000000 138
8.530077  -8.590561 73.816371 0.000000 0.000000 139
8.591146  -8.591693 73.835064 0.000000 0.000000 140
8.652223  -8.592779 73.852998 0.000000 0.000000 141
8.713308  -8.593820 73.870200 0.000000 0.000000 142
8.774401  -8.594819 73.886699 0.000000 0.000000 143
8.835500  -8.595778 73.902521 0.000000 0.000000 144
8.896607  -8.596696 73.917692 0.000000 0.000000 145
8.957721  -8.597577 73.932238 0.000000 0.000000 146
9.018842  -8.598421 73.946183 0.000000 0.000000 147
9.079969  -8.599231 73.959549 0.000000 0.000000 148
9.141102  -8.600007 73.972360 0.000000 0.000000 149
9.202242  -8.600750 73.984638 0.000000 0.000000 150
9.263388  -8.601462 73.996404 0.000000 0.000000 151
9.324540  -8.602145 74.007678 0.000000 0.000000 152
9.385697  -8.602799 74.018479 0.000000 0.000000 153
9.446860  -8.603426 74.028828 0.000000 0.000000 154
9.508028  -8.604026 74.038741 0.000000 0.000000 155
9.569202  -8.604601 74.048237 0.000000 0.000000 156
9.630380  -8.605152 74.057332 0.000000 0.000000 157
9.691563  -8.605679 74.066044 0.000000 0.000000 158
9.752751  -8.606185 74.074386 0.000000 0.000000 159
9.813943  -8.606668 74.082376 0.000000 0.000000 160
9.875140  -8.607132 74.090026 0.000000 0.000000 161
9.936341  -8.607575 74.097351 0.000000 0.000000 162
9.997547  -8.608000 74.104365 0.000000 0.000000 163
10.058756  -8.608407 74.111080 0.000000 0.000000 164
10.119969  -8.608796 74.117509 0.000000 0.000000 165
10.181186  -8.609169 74.123664 0.000000 0.000000 166
10.242406  -8.609525 74.129555 0.000000 0.000000 167
10.303630  -8.609867 74.135195 0.000000 0.000000 168
10.364857  -8.610194 74.140593 0.000000 0.000000 169
10.426088  -8.610507 74.145760 0.000000 0.000000 170
10.487321  -8.610806 74.150706 0.000000 0.000000 171
10.548558  -8.611093 74.155439 0.000000 0.000000 172
10.609797  -8.611367 74.159969 0.000000 0.000000 173
10.671040  -8.611630 74.164305 0.000000 0.000000 174
10.732285  -8.611881 74.168453 0.000000 0.000000 175
10.793533  -8.612121 74.172424 0.000000 0.000000 176
10.854783  -8.612351 74.176223 0.000000 0.000000 177
10.916036  -8.612571 74.179858 0.000000 0.000000 178
10.977291  -8.612782 74.183337 0.000000 0.000000 179
11.038548  -8.612984 74.186666 0.000000 0.000000 180
11.099808  -8.613176 74.189851 0.000000 0.000000 181
11.161070  -8.613361 74.192898 0.000000 0.000000 182
11.222334  -8.613538 74.195814 0.000000 0.000000 183
11.283599  -8.613706 74.198603 0.000000 0.000000 184
11.344867  -8.613868 74.201272 0.000000 0.000000 185
11.406137  -8.614023 74.203826 0.000000 0.000000 186
11.467408  -8.614171 74.206269 0.000000 0.000000 187
11.528681  -8.614312 74.208606 0.000000 0.000000 188
11.589956  -8.614448 74.210842 0.000000 0.000000 189
11.651232  -8.614577 74.212980 0.000000 0.000000 190
11.712510  -8.614701 74.215027 0.000000 0.000000 191
11.773789  -8.614819 74.216984 0.000000 0.000000 192
11.835070  -8.614933 74.218856 0.000000 0.000000 193
11.896352  -8.615041 74.220648 0.000000 0.000000 194
11.957635  -8.615145 74.222361 0.000000 0.000000 195
12.018920  -8.615244 74.224000 0.000000 0.000000 196
12.080205  -8.615339 74.225568 0.000000 0.000000 197
12.141493  -8.615430 74.227068 0.000000 0.000000 198
12.202781  -8.615517 74.228502 0.000000 0.000000 199
12.264070  -8.615600 74.229874 0.000000 0.000000 200
12.325360  -8.615680 74.231187 0.000000 0.000000 201
12.386652  -8.615756 74.232442 0.000000 0.000000 202
12.447944  -8.615828 74.233643 0.000000 0.000000 203
12.509237  -8.615898 74.234792 0.000000 0.000000 204
12.570531  -8.615964 74.235890 0.000000 0.000000 205
12.631826  -8.616028 74.236941 0.000000 0.000000 206
12.693122  -8.616089 74.237946 0.000000 0.000000 207
12.754419  -8.616147 74.238907 0.000000 0.000000 208
12.815716  -8.616203 74.239827 0.000000 0.000000 209
12.877014  -8.616256 74.240706 0.000000 0.000000 210
12.938313  -8.616307 74.241547 0.000000 0.000000 211
12.999613  -8.616356 74.242351 0.000000 0.000000 212
13.060913  -8.616402 74.243121 0.000000 0.000000 213
13.122214  -8.616447 74.243857 0.000000 0.000000 214
13.183516  -8.616489 74.244560 0.000000 0.000000 215
13.244818  -8.616530 74.245233 0.000000 0.000000 216
13.306121  -8.616569 74.245877 0.000000 0.000000 217
13.367424  -8.616606 74.246493 0.000000 0.000000 218
13.428728  -8.616642 74.247082 0.000000 0.000000 219
13.490032  -8.616676 74.247645 0.000000 0.000000 220
13.551337  -8.616709 74.248183 0.000000 0.000000 221
13.612642  -8.616740 74.248698 0.000000 0.000000 222
13.673948  -8.616770 74.249191 0.000000 0.000000 223
13.735254  -8.616798 74.249662 0.000000 0.000000 224
13.796560  -8.616826 74.250113 0.000000 0.000000 225
13.857867  -8.616852 74.250544 0.000000 0.000000 226
13.919175  -8.616877 74.250956 0.000000 0.000000 227
13.980482  -8.616900 74.251350 0.000000 0.000000 228
14.041790  -8.616923 74.251727 0.000000 0.000000 229
14.103099  -8.616945 74.252088 0.000000 0.000000 230
14.164408  -8.616966 74.252432 0.000000 0.000000 231
14.225717  -8.616986 74.252762 0.000000 0.000000 232
14.287026  -8.617005 74.253077 0.000000 0.000000 233
14.348336  -8.617023 74.253379 0.000000 0.000000 234
14.409646  -8.617041 74.253667 0.000000 0.000000 235
14.470956  -8.617057 74.253943 0.000000 0.000000 236
14.532266  -8.617073 74.254207 0.000000 0.000000 237
14.593577  -8.617089 74.254459 0.000000 0.000000 238
14.654888  -8.617103 74.254700 0.000000 0.000000 239
14.716199  -8.617117 74.254931 0.000000 0.000000 240
14.777511  -8.617131 74.255152 0.000000 0.000000 241
14.838822  -8.617143 74.255363 0.000000 0.000000 242
14.900134  -8.617156 74.255565 0.000000 0.000000 243
14.961446  -8.617167 74.255758 0.000000 0.000000 244
15.022759  -8.617179 74.255942 0.000000 0.000000 245
15.084071  -8.617189 74.256119 0.000000 0.000000 246
15.145384  -8.617199 74.256287 0.000000 0.000000 247
15.206696  -8.617209 74.256449 0.000000 0.000000 248
15.268009  -8.617219 74.256603 0.000000 0.000000 249
15.329323  -8.617228 74.256751 0.000000 0.000000 250
15.390636  -8.617236 74.256892 0.000000 0.000000 251
15.451949  -8.617244 74.257027 0.000000 0.000000 252
15.513263  -8.617252 74.257156 0.000000 0.000000 253
15.574576  -8.617260 74.257280 0.000000 0.000000 254
15.635890  -8.617267 74.257398 0.000000 0.000000 255
15.697204  -8.617274 74.257511 0.000000 0.000000 256
15.758518  -8.617280 74.257619 0.000000 0.000000 257
15.819832  -8.617286 74.257722 0.000000 0.000000 258
15.881147  -8.617292 74.257821 0.000000 0.000000 259
15.942461  -8.617298 74.257915 0.000000 0.000000 260
16.003775  -8.617303 74.258005 0.000000 0.000000 261
16.065090  -8.617309 74.258092 0.000000 0.000000 262
16.126405  -8.617314 74.258174 0.000000 0.000000 263
16.187719  -8.617318 74.258253 0.000000 0.000000 264
16.249034  -8.617323 74.258329 0.000000 0.000000 265
16.310349  -8.617327 74.258401 0.000000 0.000000 266
16.371664  -8.617332 74.258470 0.000000 0.000000 267
16.432979  -8.617336 74.258536 0.000000 0.000000 268
16.494294  -8.617339 74.258599 0.000000 0.000000 269
16.555610  -8.617343 74.258660 0.000000 0.000000 270
16.616925  -8.617347 74.258718 0.000000 0.000000 271
16.678240  -8.617350 74.258773 0.000000 0.000000 272
16.739556  -8.617353 74.258826 0.000000 0.000000 273
16.800871  -8.617356 74.258876 0.000000 0.000000 274
16.862187  -8.617359 74.258925 0.000000 0.000000 275
16.923502  -8.617362 74.258971 0.000000 0.000000 276
16.984818  -8.617365 74.259015 0.000000 0.000000 277
17.046134  -8.617367 74.259057 0.000000 0.000000 278
17.107449  -8.617370 74.259098 0.000000 0.000000 279
17.168765  -8.617372 74.259136 0.000000 0.000000 280
17.230081  -8.617374 74.259173 0.000000 0.000000 281
17.291397  -8.617376 74.259209 0.000000 0.000000 282
17.352713  -8.617378 74.259242 0.000000 0.000000 283
17.414029  -8.617380 74.259275 0.000000 0.000000 284
17.475345  -8.617382 74.259306 0.000000 0.000000 285
17.536661  -8.617384 74.259335 0.000000 0.000000 286
17.597977  -8.617386 74.259364 0.000000 0.000000 287
17.659293  -8.617387 74.259391 0.000000 0.000000 288
17.720609  -8.617389 74.259416 0.000000 0.000000 289
17.781925  -8.617390 74.259441 0.000000 0.000000 290
17.843242  -8.617392 74.259465 0.000000 0.000000 291
17.904558  -8.617393 74.259487 0.000000 0.000000 292
17.965874  -8.617395 74.259509 0.000000 0.000000 293
18.027190  -8.617396 74.259530 0.000000 0.000000 294
18.088507  -8.617397 74.259550 0.000000 0.000000 295
18.149823  -8.617398 74.259568 0.000000 0.000000 296
18.211139  -8.617399 74.259587 0.000000 0.000000 297
18.272456  -8.617400 74.259604 0.000000 0.000000 298
18.333772  -8.617401 74.259620 0.000000 0.000000 299
18.395088  -8.617402 74.259636 0.000000 0.000000 300
18.456405  -8.617403 74.259651 0.000000 0.000000 301
18.517721  -8.617404 74.259666 0.000000 0.000000 302
18.579038  -8.617405 74.259680 0.000000 0.000000 303
18.640354  -8.617406 74.259693 0.000000 0.000000 304
18.701671  -8.617406 74.259705 0.000000 0.000000 305
18.762987  -8.617407 74.259718 0.000000 0.000000 306
18.824304  -8.617408 74.259729 0.000000 0.000000 307
18.885621  -8.617409 74.259740 0.000000 0.000000 308
18.946937  -8.617409 74.259751 0.000000 0.000000 309
19.008254  -8.617410 74.259761 0.000000 0.000000 310
19.069570  -8.617410 74.259771 0.000000 0.000000 311
19.130887  -8.617411 74.259780 0.000000 0.000000 312
19.192204  -8.617411 74.259789 0.000000 0.000000 313
19.253520  -8.617412 74.259797 0.000000 0.000000 314
19.314837  -8.617412 74.259805 0.000000 0.000000 315
19.376154  -8.617413 74.259813 0.000000 0.000000 316
19.437470  -8.617413 74.259820 0.000000 0.000000 317
19.498787  -8.617414 74.259827 0.000000 0.000000 318
19.560104  -8.617414 74.259834 0.000000 0.000000 319
19.621420  -8.617415 74.259841 0.000000 0.000000 320
19.682737  -8.617415 74.259847 0.000000 0.000000 321
19.744054  -8.617415 74.259853 0.000000 0.000000 322
19.805370  -8.617416 74.259858 0.000000 0.000000 323
19.866687  -8.617416 74.259864 0.000000 0.000000 324
19.928004  -8.617416 74.259869 0.000000 0.000000 325
19.989321  -8.617417 74.259874 0.000000 0.000000 326
20.050637  -8.617417 74.259879 0.000000 0.000000 327
20.111954  -8.617417 74.259883 0.000000 0.000000 328
20.173271  -8.617417 74.259888 0.000000 0.000000 329
20.234588  -8.617418 74.259892 0.000000 0.000000 330
20.295905  -8.617418 74.259896 0.000000 0.000000 331
20.357221  -8.617418 74.259899 0.000000 0.000000 332
20.418538  -8.617418 74.259903 0.000000 0.000000 333
20.479855  -8.617419 74.259907 0.000000 0.000000 334
20.541172  -8.617419 74.259910 0.000000 0.000000 335
20.602489  -8.617419 74.259913 0.000000 0.000000 336
20.663805  -8.617419 74.259916 0.000000 0.000000 337
20.725122  -8.617419 74.259919 0.000000 0.000000 338
20.786439  -8.617420 74.259922 0.000000 0.000000 339
20.847756  -8.617420 74.259924 0.000000 0.000000 340
20.909073  -8.617420 74.259927 0.000000 0.000000 341
20.970389  -8.617420 74.259929 0.000000 0.000000 342
21.031706  -8.617420 74.259932 0.000000 0.000000 343
21.093023  -8.617420 74.259934 0.000000 0.000000 344
21.154340  -8.617420 74.259936 0.000000 0.000000 345
21.215657  -8.617420 74.259938 0.000000 0.000000 346
21.276974  -8.617421 74.259940 0.000000 0.000000 347
21.338291  -8.617421 74.259942 0.000000 0.000000 348
21.399607  -8.617421 74.259944 0.000000 0.000000 349
21.460924  -8.617421 74.259945 0.000000 0.000000 350
21.522241  -8.617421 74.259947 0.000000 0.000000 351
21.583558  -8.617421 74.259948 0.000000 0.000000 352
21.644875  -8.617421 74.259950 0.000000 0.000000 353
21.706192  -8.617421 74.259951 0.000000 0.000000 354
21.767509  -8.617421 74.259953 0.000000 0.000000 355
21.828825  -8.617421 74.259954 0.000000 0.000000 356
21.890142  -8.617422 74.259955 0.000000 0.000000 357
21.951459  -8.617422 74.259956 0.000000 0.000000 358
22.012776  -8.617422 74.259957 0.000000 0.000000 359
22.074093  -8.617422 74.259959 0.000000 0.000000 360
22.135410  -8.617422 74.259960 0.000000 0.000000 361
22.196727  -8.617422 74.259961 0.000000 0.000000 362
22.258044  -8.617422 74.259962 0.000000 0.000000 363
22.319361  -8.617422 74.259962 0.000000 0.000000 364
22.380677  -8.617422 74.259963 0.000000 0.000000 365
22.441994  -8.617422 74.259964 0.000000 0.000000 366
22.503311  -8.617422 74.259965 0.000000 0.000000 367
22.564628  -8.617422 74.259966 0.000000 0.000000 368
22.625945  -8.617422 74.259966 0.000000 0.000000 369
22.687262  -8.617422 74.259967 0.000000 0.000000 370
22.748579  -8.617422 74.259968 0.000000 0.000000 371
22.809896  -8.617422 74.259968 0.000000 0.000000 372
22.871213  -8.617422 74.259969 0.000000 0.000000 373
22.932529  -8.617422 74.259970 0.000000 0.000000 374
22.993846  -8.617422 74.259970 0.000000 0.000000 375
23.055163  -8.617422 74.259971 0.000000 0.000000 376
23.116480  -8.617423 74.259971 0.000000 0.000000 377
23.177797  -8.617423 74.259972 0.000000 0.000000 378
23.239114  -8.617423 74.259972 0.000000 0.000000 379
23.300431  -8.617423 74.259973 0.000000 0.000000 380
23.361748  -8.617423 74.259973 0.000000 0.000000 381
