 # inv_tmp, energy, phys_var, phys_doublon, phys_num, step_i
0.0814577001143117  -0.5526205281188759 8.5257593611203895 0.0000000000000000 0.0000000000000000 1
0.1585857857992320  -1.2229415129547494 9.9382300330571400 0.0000000000000000 0.0000000000000000 2
0.2317484886571165  -1.8901364784186383 12.0862681961442107 0.0000000000000000 0.0000000000000000 3
0.3013993537959490  -2.5428571735296304 14.8984561600981209 0.0000000000000000 0.0000000000000000 4
0.3680411033040093  -3.1708782259023982 18.2576288586262869 0.0000000000000000 0.0000000000000000 5
0.4321941101433081  -3.7653020214019253 22.0143117113720947 0.0000000000000000 0.0000000000000000 6
0.4943712811038072  -4.3187970966709646 26.0040275858536987 0.0000000000000000 0.0000000000000000 7
0.5550559443144311  -4.8259231594432457 30.0655847148191739 0.0000000000000000 0.0000000000000000 8
0.6146821531625556  -5.2834270645235675 34.0569746965899611 0.0000000000000000 0.0000000000000000 9
0.6736196581733040  -5.6903449258521261 37.8660817198333604 0.0000000000000000 0.0000000000000000 10
0.7321661378232888  -6.0478250269883276 41.4150074493112399 0.0000000000000000 0.0000000000000000 11
0.7905474598255464  -6.3587086413460669 44.6586666687955187 0.0000000000000000 0.0000000000000000 12
0.8489245419986489  -6.6269859259662907 47.5795412057017728 0.0000000000000000 0.0000000000000000 13
0.9074041445851164  -6.8572538125249274 50.1807594819625891 0.0000000000000000 0.0000000000000000 14
0.9660509025370803  -7.0542642434398015 52.4792274255372888 0.0000000000000000 0.0000000000000000 15
1.0248986327790996  -7.2225999494499105 54.4998214696143890 0.0000000000000000 0.0000000000000000 16
1.0839598575436502  -7.3664752097435056 56.2710144619594530 0.0000000000000000 0.0000000000000000 17
1.1432332181201572  -7.4896378353977209 57.8218871037418154 0.0000000000000000 0.0000000000000000 18
1.2027089058066036  -7.5953426606707310 59.1802768611594558 0.0000000000000000 0.0000000000000000 19
1.2623724452889002  -7.6863696995903616 60.3717657462097179 0.0000000000000000 0.0000000000000000 20
1.3222072138680510  -7.7650664430510146 61.4192373038976029 0.0000000000000000 0.0000000000000000 21
1.3821960444981221  -7.8334003162167054 62.3427915556907379 0.0000000000000000 0.0000000000000000 22
1.4423221934515849  -7.8930126769515807 63.1598668553569667 0.0000000000000000 0.0000000000000000 23
1.5025698833180758  -7.9452695897266201 63.8854678444491313 0.0000000000000000 0.0000000000000000 24
1.5629245716787534  -7.9913071340957238 64.5324361511726607 0.0000000000000000 0.0000000000000000 25
1.6233730487758073  -8.0320705331491258 65.1117264287989599 0.0000000000000000 0.0000000000000000 26
1.6839034330691875  -8.0683472338887210 65.6326673441749335 0.0000000000000000 0.0000000000000000 27
1.7445051094114559  -8.1007944877230749 66.1031977621645837 0.0000000000000000 0.0000000000000000 28
1.8051686381331971  -8.1299621402575983 66.5300747078919983 0.0000000000000000 0.0000000000000000 29
1.8658856524157974  -8.1563113593359091 66.9190532509617242 0.0000000000000000 0.0000000000000000 30
1.9266487542286692  -8.1802299790869792 67.2750402948046258 0.0000000000000000 0.0000000000000000 31
1.9874514145798059  -8.2020450565485188 67.6022250619814145 0.0000000000000000 0.0000000000000000 32
2.0482878810004670  -8.2220331488574310 67.9041892833161000 0.0000000000000000 0.0000000000000000 33
2.1091530934632066  -8.2404287345233662 68.1839999974618962 0.0000000000000000 0.0000000000000000 34
2.1700426089206468  -8.2574311270400109 68.4442876113553780 0.0000000000000000 0.0000000000000000 35
2.2309525340892851  -8.2732101646401457 68.6873115557692273 0.0000000000000000 0.0000000000000000 36
2.2918794658181114  -8.2879109061631606 68.9150155463663907 0.0000000000000000 0.0000000000000000 37
2.3528204382665963  -8.3016575187487778 69.1290741564087341 0.0000000000000000 0.0000000000000000 38
2.4137728761005350  -8.3145565070767891 69.3309321348261989 0.0000000000000000 0.0000000000000000 39
2.4747345529535361  -8.3266994047995713 69.5218376665340685 0.0000000000000000 0.0000000000000000 40
2.5357035544689790  -8.3381650254350177 69.7028705700134736 0.0000000000000000 0.0000000000000000 41
2.5966782453155290  -8.3490213512351996 69.8749662573325310 0.0000000000000000 0.0000000000000000 42
2.6576572396488176  -8.3593271235247908 70.0389361401836226 0.0000000000000000 0.0000000000000000 43
2.7186393745672879  -8.3691331859734071 70.1954850481709514 0.0000000000000000 0.0000000000000000 44
2.7796236861785255  -8.3784836226279040 70.3452261287384175 0.0000000000000000 0.0000000000000000 45
2.8406093879525964  -8.3874167248000688 70.4886936184026069 0.0000000000000000 0.0000000000000000 46
2.9015958510908155  -8.3959658146953799 70.6263538094066945 0.0000000000000000 0.0000000000000000 47
2.9625825866823421  -8.4041599486703014 70.7586144820411107 0.0000000000000000 0.0000000000000000 48
3.0235692294577854  -8.4120245189736451 70.8858330285826668 0.0000000000000000 0.0000000000000000 49
3.0845555229794552  -8.4195817695663706 71.0083234583509437 0.0000000000000000 0.0000000000000000 50
3.1455413061327784  -8.4268512389690482 71.1263624433271957 0.0000000000000000 0.0000000000000000 51
3.2065265008036894  -8.4338501409338900 71.2401945389575104 0.0000000000000000 0.0000000000000000 52
3.2675111006430755  -8.4405936919811122 71.3500366942027853 0.0000000000000000 0.0000000000000000 53
3.3284951608324684  -8.4470953933995840 71.4560821478247874 0.0000000000000000 0.0000000000000000 54
3.3894787887756110  -8.4533672741275776 71.5585037936722728 0.0000000000000000 0.0000000000000000 55
3.4504621356487917  -8.4594200999515152 71.6574570858374642 0.0000000000000000 0.0000000000000000 56
3.5114453887494776  -8.4652635536497804 71.7530825445736582 0.0000000000000000 0.0000000000000000 57
3.5724287645880195  -8.4709063900333295 71.8455079154558831 0.0000000000000000 0.0000000000000000 58
3.6334125026714150  -8.4763565692698482 71.9348500271535158 0.0000000000000000 0.0000000000000000 59
3.6943968599315680  -8.4816213714037154 72.0212163871443494 0.0000000000000000 0.0000000000000000 60
3.7553821057533194  -8.4867074945831984 72.1047065495447868 0.0000000000000000 0.0000000000000000 61
3.8163685175599058  -8.4916211391667744 72.1854132848188783 0.0000000000000000 0.0000000000000000 62
3.8773563769156216  -8.4963680795911500 72.2634235773338673 0.0000000000000000 0.0000000000000000 63
3.9383459661073372  -8.5009537256360570 72.3388194734515935 0.0000000000000000 0.0000000000000000 64
3.9993375651682301  -8.5053831745087045 72.4116788000089713 0.0000000000000000 0.0000000000000000 65
4.0603314493087721  -8.5096612549873463 72.4820757705691818 0.0000000000000000 0.0000000000000000 66
4.1213278867215681  -8.5137925647052199 72.5500814946742167 0.0000000000000000 0.0000000000000000 67
4.1823271367282446  -8.5177815015183675 72.6157644034437482 0.0000000000000000 0.0000000000000000 68
4.2433294482380992  -8.5216322897812926 72.6791906032153179 0.0000000000000000 0.0000000000000000 69
4.3043350584897970  -8.5253490022498113 72.7404241674673955 0.0000000000000000 0.0000000000000000 70
4.3653441920489522  -8.5289355782389720 72.7995273759900954 0.0000000000000000 0.0000000000000000 71
4.4263570600359490  -8.5323958385839092 72.8565609091406543 0.0000000000000000 0.0000000000000000 72
4.4873738595599280  -8.5357334978811110 72.9115840040273611 0.0000000000000000 0.0000000000000000 73
4.5483947733363772  -8.5389521744256598 72.9646545785859360 0.0000000000000000 0.0000000000000000 74
4.6094199694672602  -8.5420553982058731 73.0158293287385618 0.0000000000000000 0.0000000000000000 75
4.6704496013641412  -8.5450466172687012 73.0651638031386597 0.0000000000000000 0.0000000000000000 76
4.7314838077961481  -8.5479292027273797 73.1127124594005693 0.0000000000000000 0.0000000000000000 77
4.7925227130460835  -8.5507064526456489 73.1585287051790090 0.0000000000000000 0.0000000000000000 78
4.8535664271593193  -8.5533815950003902 73.2026649269913037 0.0000000000000000 0.0000000000000000 79
4.9146150462714244  -8.5559577898959454 73.2451725092629431 0.0000000000000000 0.0000000000000000 80
4.9756686530017333  -8.5584381311782600 73.2861018457099362 0.0000000000000000 0.0000000000000000 81
5.0367273169012536  -8.5608256475750100 73.3255023448533620 0.0000000000000000 0.0000000000000000 82
5.0977910949444309  -8.5631233034686609 73.3634224311803393 0.0000000000000000 0.0000000000000000 83
5.1588600320553599  -8.5653339993925997 73.3999095432211845 0.0000000000000000 0.0000000000000000 84
5.2199341616600323  -8.5674605723258708 73.4350101295988082 0.0000000000000000 0.0000000000000000 85
5.2810135062571364  -8.5695057958492562 73.4687696439209219 0.0000000000000000 0.0000000000000000 86
5.3420980780007916  -8.5714723802145478 73.5012325392255548 0.0000000000000000 0.0000000000000000 87
5.4031878792894119  -8.5733629723692388 73.5324422625507168 0.0000000000000000 0.0000000000000000 88
5.4642829033556310  -8.5751801559706475 73.5624412500808660 0.0000000000000000 0.0000000000000000 89
5.5253831348528806  -8.5769264514166075 73.5912709232205344 0.0000000000000000 0.0000000000000000 90
5.5864885504348747  -8.5786043159136867 73.6189716858582130 0.0000000000000000 0.0000000000000000 91
5.6475991193247825  -8.5802161435988626 73.6455829230108918 0.0000000000000000 0.0000000000000000 92
5.7087148038713948  -8.5817642657263491 73.6711430009773380 0.0000000000000000 0.0000000000000000 93
5.7698355600900673  -8.5832509509275017 73.6956892690766523 0.0000000000000000 0.0000000000000000 94
5.8309613381866248  -8.5846784055488605 73.7192580630064072 0.0000000000000000 0.0000000000000000 95
5.8920920830627717  -8.5860487740708198 73.7418847098190042 0.0000000000000000 0.0000000000000000 96
5.9532277348019171  -8.5873641396073701 73.7636035344876859 0.0000000000000000 0.0000000000000000 97
6.0143682291345879  -8.5886265244857753 73.7844478680098490 0.0000000000000000 0.0000000000000000 98
6.0755134978828735  -8.5898378909036790 73.8044500569794764 0.0000000000000000 0.0000000000000000 99
6.1366634693835538  -8.5910001416601389 73.8236414745456955 0.0000000000000000 0.0000000000000000 100
6.1978180688898101  -8.5921151209563362 73.8420525326659885 0.0000000000000000 0.0000000000000000 101
6.2589772189515118  -8.5931846152610802 73.8597126955550323 0.0000000000000000 0.0000000000000000 102
6.3201408397742789  -8.5942103542359050 73.8766504942273485 0.0000000000000000 0.0000000000000000 103
6.3813088495576240  -8.5951940117142804 73.8928935420281050 0.0000000000000000 0.0000000000000000 104
6.4424811648125679  -8.5961372067293489 73.9084685510487560 0.0000000000000000 0.0000000000000000 105
6.5036577006592413  -8.5970415045845208 73.9234013493226030 0.0000000000000000 0.0000000000000000 106
6.5648383711049965  -8.5979084179614667 73.9377168987005717 0.0000000000000000 0.0000000000000000 107
6.6260230893037049  -8.5987394080599788 73.9514393133080574 0.0000000000000000 0.0000000000000000 108
6.6872117677968470  -8.5995358857645030 73.9645918784901397 0.0000000000000000 0.0000000000000000 109
6.7484043187371254  -8.6002992128323008 73.9771970701549435 0.0000000000000000 0.0000000000000000 110
6.8096006540953002  -8.6010307030984254 73.9892765744313152 0.0000000000000000 0.0000000000000000 111
6.8708006858509973  -8.6017316236930021 74.0008513075606800 0.0000000000000000 0.0000000000000000 112
6.9320043261682027  -8.6024031962665788 74.0119414359497654 0.0000000000000000 0.0000000000000000 113
6.9932114875562306  -8.6030465982195423 74.0225663963143177 0.0000000000000000 0.0000000000000000 114
7.0544220830168243  -8.6036629639320488 74.0327449158512536 0.0000000000000000 0.0000000000000000 115
7.1156360261782199  -8.6042533859908907 74.0424950323798043 0.0000000000000000 0.0000000000000000 116
7.1768532314168008  -8.6048189164104549 74.0518341143989147 0.0000000000000000 0.0000000000000000 117
7.2380736139670905  -8.6053605678447376 74.0607788810121264 0.0000000000000000 0.0000000000000000 118
7.2992970900207474  -8.6058793147880337 74.0693454216761893 0.0000000000000000 0.0000000000000000 119
7.3605235768152424  -8.6063760947619183 74.0775492157343081 0.0000000000000000 0.0000000000000000 120
7.4217529927128245  -8.6068518094865016 74.0854051516984669 0.0000000000000000 0.0000000000000000 121
7.4829852572704283  -8.6073073260342028 74.0929275462505927 0.0000000000000000 0.0000000000000000 122
7.5442202913011052  -8.6077434779643589 74.1001301629346187 0.0000000000000000 0.0000000000000000 123
7.6054580169275185  -8.6081610664373898 74.1070262305161691 0.0000000000000000 0.0000000000000000 124
7.6666983576280865  -8.6085608613072768 74.1136284609897587 0.0000000000000000 0.0000000000000000 125
7.7279412382762800  -8.6089436021913492 74.1199490672156429 0.0000000000000000 0.0000000000000000 126
7.7891865851735416  -8.6093099995165865 74.1259997801723785 0.0000000000000000 0.0000000000000000 127
7.8504343260763276  -8.6096607355417003 74.1317918658132697 0.0000000000000000 0.0000000000000000 128
7.9116843902177152  -8.6099964653544951 74.1373361415172951 0.0000000000000000 0.0000000000000000 129
7.9729367083239611  -8.6103178178440825 74.1426429921271932 0.0000000000000000 0.0000000000000000 130
8.0341912126264603  -8.6106253966476647 74.1477223855700203 0.0000000000000000 0.0000000000000000 131
8.0954478368694520  -8.6109197810716829 74.1525838880562986 0.0000000000000000 0.0000000000000000 132
8.1567065163138022  -8.6112015269873101 74.1572366788568900 0.0000000000000000 0.0000000000000000 133
8.2179671877372602  -8.6114711677002056 74.1616895646567116 0.0000000000000000 0.0000000000000000 134
8.2792297894314473  -8.6117292147946838 74.1659509934868453 0.0000000000000000 0.0000000000000000 135
8.3404942611958912  -8.6119761589524373 74.1700290682377670 0.0000000000000000 0.0000000000000000 136
8.4017605443293633  -8.6122124707460248 74.1739315597566247 0.0000000000000000 0.0000000000000000 137
8.4630285816188291  -8.6124386014073959 74.1776659195332400 0.0000000000000000 0.0000000000000000 138
8.5242983173261671  -8.6126549835718134 74.1812392919804182 0.0000000000000000 0.0000000000000000 139
8.5855696971729625  -8.6128620319974551 74.1846585263137257 0.0000000000000000 0.0000000000000000 140
8.6468426683235364  -8.6130601442612598 74.1879301880385214 0.0000000000000000 0.0000000000000000 141
8.7081171793664094  -8.6132497014312630 74.1910605700503254 0.0000000000000000 0.0000000000000000 142
8.7693931802944061  -8.6134310687160180 74.1940557033565824 0.0000000000000000 0.0000000000000000 143
8.8306706224835381  -8.6136045960915748 74.1969213674281605 0.0000000000000000 0.0000000000000000 144
8.8919494586708332  -8.6137706189064609 74.1996631001880473 0.0000000000000000 0.0000000000000000 145
8.9532296429312552  -8.6139294584652504 74.2022862076467931 0.0000000000000000 0.0000000000000000 146
9.0145111306538670  -8.6140814225912177 74.2047957731925578 0.0000000000000000 0.0000000000000000 147
9.0757938785173007  -8.6142268061686202 74.2071966665452862 0.0000000000000000 0.0000000000000000 148
9.1370778444647254  -8.6143658916651855 74.2094935523837336 0.0000000000000000 0.0000000000000000 149
9.1983629876783546  -8.6144989496353066 74.2116908986543251 0.0000000000000000 0.0000000000000000 150
9.2596492685536198  -8.6146262392045401 74.2137929845714410 0.0000000000000000 0.0000000000000000 151
9.3209366486730900  -8.6147480085359014 74.2158039083171417 0.0000000000000000 0.0000000000000000 152
9.3822250907802225  -8.6148644952786064 74.2177275944507642 0.0000000000000000 0.0000000000000000 153
9.4435145587530069  -8.6149759269996480 74.2195678010359501 0.0000000000000000 0.0000000000000000 154
9.5048050175775742  -8.6150825215989126 74.2213281264951519 0.0000000000000000 0.0000000000000000 155
9.5660964333218477  -8.6151844877082535 74.2230120161994762 0.0000000000000000 0.0000000000000000 156
9.6273887731092600  -8.6152820250750715 74.2246227688030160 0.0000000000000000 0.0000000000000000 157
9.6886820050926108  -8.6153753249309428 74.2261635423300561 0.0000000000000000 0.0000000000000000 158
9.7499760984280996  -8.6154645703457913 74.2276373600235218 0.0000000000000000 0.0000000000000000 159
9.8112710232495850  -8.6155499365680583 74.2290471159625298 0.0000000000000000 0.0000000000000000 160
9.8725667506430774  -8.6156315913514216 74.2303955804575963 0.0000000000000000 0.0000000000000000 161
9.9338632526215473  -8.6157096952684906 74.2316854052308202 0.0000000000000000 0.0000000000000000 162
9.9951605021000223  -8.6157844020119665 74.2329191283891703 0.0000000000000000 0.0000000000000000 163
10.0564584728710358  -8.6158558586836858 74.2340991791976137 0.0000000000000000 0.0000000000000000 164
10.1177571395804478  -8.6159242060720302 74.2352278826603111 0.0000000000000000 0.0000000000000000 165
10.1790564777036199  -8.6159895789181000 74.2363074639160487 0.0000000000000000 0.0000000000000000 166
10.2403564635220210  -8.6160521061710735 74.2373400524551812 0.0000000000000000 0.0000000000000000 167
10.3016570741002358  -8.6161119112331548 74.2383276861647801 0.0000000000000000 0.0000000000000000 168
10.3629582872633765  -8.6161691121945232 74.2392723152084244 0.0000000000000000 0.0000000000000000 169
10.4242600815749604  -8.6162238220586200 74.2401758057467447 0.0000000000000000 0.0000000000000000 170
10.4855624363152113  -8.6162761489582103 74.2410399435051005 0.0000000000000000 0.0000000000000000 171
10.5468653314598235  -8.6163261963624560 74.2418664371936927 0.0000000000000000 0.0000000000000000 172
10.6081687476591586  -8.6163740632755044 74.2426569217867751 0.0000000000000000 0.0000000000000000 173
10.6694726662179313  -8.6164198444268152 74.2434129616654843 0.0000000000000000 0.0000000000000000 174
10.7307770690753195  -8.6164636304535431 74.2441360536302000 0.0000000000000000 0.0000000000000000 175
10.7920819387855627  -8.6165055080753650 74.2448276297873520 0.0000000000000000 0.0000000000000000 176
10.8533872584990103  -8.6165455602619936 74.2454890603157764 0.0000000000000000 0.0000000000000000 177
10.9146930119436174  -8.6165838663936825 74.2461216561173103 0.0000000000000000 0.0000000000000000 178
10.9759991834069108  -8.6166205024149853 74.2467266713561571 0.0000000000000000 0.0000000000000000 179
11.0373057577184159  -8.6166555409820980 74.2473053058918140 0.0000000000000000 0.0000000000000000 180
11.0986127202325058  -8.6166890516039611 74.2478587076095380 0.0000000000000000 0.0000000000000000 181
11.1599200568117141  -8.6167211007774345 74.2483879746523883 0.0000000000000000 0.0000000000000000 182
11.2212277538105045  -8.6167517521167571 74.2488941575593913 0.0000000000000000 0.0000000000000000 183
11.2825357980594294  -8.6167810664775537 74.2493782613131827 0.0000000000000000 0.0000000000000000 184
11.3438441768497587  -8.6168091020755551 74.2498412473007505 0.0000000000000000 0.0000000000000000 185
11.4051528779185212  -8.6168359146003173 74.2502840351912283 0.0000000000000000 0.0000000000000000 186
11.4664618894339512  -8.6168615573240892 74.2507075047339953 0.0000000000000000 0.0000000000000000 187
11.5277711999813519  -8.6168860812060739 74.2511124974801504 0.0000000000000000 0.0000000000000000 188
11.5890807985493627  -8.6169095349922227 74.2514998184308013 0.0000000000000000 0.0000000000000000 189
11.6503906745166201  -8.6169319653108012 74.2518702376151793 0.0000000000000000 0.0000000000000000 190
11.7117008176387980  -8.6169534167638702 74.2522244916012966 0.0000000000000000 0.0000000000000000 191
11.7730112180360429  -8.6169739320148508 74.2525632849420703 0.0000000000000000 0.0000000000000000 192
11.8343218661807636  -8.6169935518723513 74.2528872915597589 0.0000000000000000 0.0000000000000000 193
11.8956327528858008  -8.6170123153704310 74.2531971560711241 0.0000000000000000 0.0000000000000000 194
11.9569438692929282  -8.6170302598453663 74.2534934950555936 0.0000000000000000 0.0000000000000000 195
12.0182552068617401  -8.6170474210091896 74.2537768982693649 0.0000000000000000 0.0000000000000000 196
