 # inv_tmp, energy, phys_var, phys_doublon, phys_num, step_i
0.0813726111244378  -0.5782944944648529 8.7334002251325469 0.0000000000000000 0.0000000000000000 1
0.1583654332995664  -1.2580371654307980 9.9696670018886895 0.0000000000000000 0.0000000000000000 2
0.2315327678634289  -1.9142585102214960 11.8209946682049321 0.0000000000000000 0.0000000000000000 3
0.3015088458406905  -2.5332182135279497 14.1887184260058650 0.0000000000000000 0.0000000000000000 4
0.3689046913917878  -3.1072725106108825 16.9537850000218739 0.0000000000000000 0.0000000000000000 5
0.4342490803707980  -3.6339099895235254 19.9953960680442364 0.0000000000000000 0.0000000000000000 6
0.4979732153460083  -4.1139618930555084 23.2026737462684238 0.0000000000000000 0.0000000000000000 7
0.5604219107256653  -4.5499187197772368 26.4797739579042641 0.0000000000000000 0.0000000000000000 8
0.6218734855543624  -4.9447941070426840 29.7469607511116294 0.0000000000000000 0.0000000000000000 9
0.6825576058809519  -5.3015561290050188 32.9399515752146499 0.0000000000000000 0.0000000000000000 10
0.7426673859259383  -5.6229515620522026 36.0088016732213703 0.0000000000000000 0.0000000000000000 11
0.8023662240863850  -5.9115282766639643 38.9167241566283053 0.0000000000000000 0.0000000000000000 12
0.8617913137659547  -6.1697169427041558 41.6388267310307754 0.0000000000000000 0.0000000000000000 13
0.9210556817905143  -6.3998993259219095 44.1606746311388179 0.0000000000000000 0.0000000000000000 14
0.9802499574461203  -6.6044389720353101 46.4766668189311432 0.0000000000000000 0.0000000000000000 15
1.0394444196517425  -6.7856768433288011 48.5883020970753563 0.0000000000000000 0.0000000000000000 16
1.0986914187220798  -6.9459047559927276 50.5024564354710819 0.0000000000000000 0.0000000000000000 17
1.1580280391425790  -7.0873301709127272 52.2297889764911361 0.0000000000000000 0.0000000000000000 18
1.2174788007648589  -7.2120424405970702 53.7833607435343950 0.0000000000000000 0.0000000000000000 19
1.2770582170987941  -7.3219863154489051 55.1775078051475774 0.0000000000000000 0.0000000000000000 20
1.3367730866542638  -7.4189449348651264 56.4269735077300894 0.0000000000000000 0.0000000000000000 21
1.3966244539666057  -7.5045321417893991 57.5462784827469349 0.0000000000000000 0.0000000000000000 22
1.4566092258556274  -7.5801926717710648 58.5492929523666703 0.0000000000000000 0.0000000000000000 23
1.5167214614671856  -7.6472082840890714 59.4489710496966879 0.0000000000000000 0.0000000000000000 24
1.5769533731994159  -7.7067079152486659 60.2572082901629997 0.0000000000000000 0.0000000000000000 25
1.6372960832725199  -7.7596802015587851 60.9847881614110747 0.0000000000000000 0.0000000000000000 26
1.6977401811719322  -7.8069870754454103 61.6413899710438073 0.0000000000000000 0.0000000000000000 27
1.7582761235288293  -7.8493774957308657 62.2356362990542493 0.0000000000000000 0.0000000000000000 28
1.8188945123852949  -7.8875006797062177 62.7751639464279734 0.0000000000000000 0.0000000000000000 29
1.8795862816325775  -7.9219184489285581 63.2667068690168293 0.0000000000000000 0.0000000000000000 30
1.9403428155242282  -7.9531164822795919 63.7161832014485441 0.0000000000000000 0.0000000000000000 31
2.0011560179568737  -7.9815143975342187 64.1287812038767129 0.0000000000000000 0.0000000000000000 32
2.0620183468272475  -8.0074746675032245 64.5090409515087657 0.0000000000000000 0.0000000000000000 33
2.1229228242134104  -8.0313104293819535 64.8609299878622636 0.0000000000000000 0.0000000000000000 34
2.1838630303130948  -8.0532922753696141 65.1879121182059436 0.0000000000000000 0.0000000000000000 35
2.2448330868941779  -8.0736541261582442 65.4930091472370179 0.0000000000000000 0.0000000000000000 36
2.3058276343574460  -8.0925982919886543 65.7788557579602582 0.0000000000000000 0.0000000000000000 37
2.3668418052744840  -8.1102998225883667 66.0477479580732023 0.0000000000000000 0.0000000000000000 38
2.4278711963521156  -8.1269102402117781 66.3016856385626738 0.0000000000000000 0.0000000000000000 39
2.4889118401133996  -8.1425607410646759 66.5424098346765192 0.0000000000000000 0.0000000000000000 40
2.5499601771127218  -8.1573649408310551 66.7714352787829455 0.0000000000000000 0.0000000000000000 41
2.6110130291708442  -8.1714212305846381 66.9900788063895618 0.0000000000000000 0.0000000000000000 42
2.6720675738878676  -8.1848148004991117 67.1994841332842014 0.0000000000000000 0.0000000000000000 43
2.7331213205395870  -8.1976193806964197 67.4006434716002758 0.0000000000000000 0.0000000000000000 44
2.7941720873643843  -8.2098987413810001 67.5944164008433575 0.0000000000000000 0.0000000000000000 45
2.8552179801878270  -8.2217079881053063 67.7815463597224834 0.0000000000000000 0.0000000000000000 46
2.9162573722988081  -8.2330946825527569 67.9626750778149074 0.0000000000000000 0.0000000000000000 47
2.9772888854758772  -8.2440998145384086 68.1383552235497234 0.0000000000000000 0.0000000000000000 48
3.0383113720592267  -8.2547586469322702 68.3090615070407381 0.0000000000000000 0.0000000000000000 49
3.0993238979682505  -8.2651014518213515 68.4752004428844714 0.0000000000000000 0.0000000000000000 50
3.1603257265734972  -8.2751541533634594 68.6371189489217102 0.0000000000000000 0.0000000000000000 51
3.2213163033431615  -8.2849388903741694 68.7951119317759492 0.0000000000000000 0.0000000000000000 52
3.2822952411964130  -8.2944745096612564 68.9494289883278668 0.0000000000000000 0.0000000000000000 53
3.3432623065079499  -8.3037769994201884 69.1002803337538296 0.0000000000000000 0.0000000000000000 54
3.4042174057195238  -8.3128598705787198 69.2478420509494867 0.0000000000000000 0.0000000000000000 55
3.4651605725244208  -8.3217344927846568 69.3922607427194009 0.0000000000000000 0.0000000000000000 56
3.5260919555998442  -8.3304103907315135 69.5336576567065379 0.0000000000000000 0.0000000000000000 57
3.5870118068696946  -8.3388955056801493 69.6721323433714446 0.0000000000000000 0.0000000000000000 58
3.6479204702864143  -8.3471964263341825 69.8077658991552568 0.0000000000000000 0.0000000000000000 59
3.7088183711253735  -8.3553185926406499 69.9406238400447364 0.0000000000000000 0.0000000000000000 60
3.7697060057889042  -8.3632664755957506 70.0707586449154007 0.0000000000000000 0.0000000000000000 61
3.8305839321194877  -8.3710437357235978 70.1982120030867236 0.0000000000000000 0.0000000000000000 62
3.8914527602230966  -8.3786533625494730 70.3230167963462947 0.0000000000000000 0.0000000000000000 63
3.9523131438042474  -8.3860977970979445 70.4451988421588737 0.0000000000000000 0.0000000000000000 64
4.0131657720141547  -8.3933790392004468 70.5647784217730702 0.0000000000000000 0.0000000000000000 65
4.0740113618126017  -8.4004987411892706 70.6817716143827539 0.0000000000000000 0.0000000000000000 66
4.1348506508428935  -8.4074582893783507 70.7961914563160519 0.0000000000000000 0.0000000000000000 67
4.1956843908175863  -8.4142588745810194 70.9080489423511295 0.0000000000000000 0.0000000000000000 68
4.2565133414108214  -8.4209015527858995 71.0173538846417500 0.0000000000000000 0.0000000000000000 69
4.3173382646510001  -8.4273872970009585 71.1241156433285653 0.0000000000000000 0.0000000000000000 70
4.3781599198053858  -8.4337170411792712 71.2283437416825222 0.0000000000000000 0.0000000000000000 71
4.4389790587460762  -8.4398917170555805 71.3300483775397964 0.0000000000000000 0.0000000000000000 72
4.4997964217846791  -8.4459122846483048 71.4292408418187392 0.0000000000000000 0.0000000000000000 73
4.5606127339610536  -8.4517797571153963 71.5259338540381862 0.0000000000000000 0.0000000000000000 74
4.6214287017696387  -8.4574952205931400 71.6201418239666623 0.0000000000000000 0.0000000000000000 75
4.6822450103052944  -8.4630598495932219 71.7118810478074522 0.0000000000000000 0.0000000000000000 76
4.7430623208091198  -8.4684749184845423 71.8011698466580697 0.0000000000000000 0.0000000000000000 77
4.8038812685935719  -8.4737418095414299 71.8880286543612215 0.0000000000000000 0.0000000000000000 78
4.8647024613252441  -8.4788620179984378 71.9724800612868876 0.0000000000000000 0.0000000000000000 79
4.9255264776429888  -8.4838371545136386 72.0545488200407647 0.0000000000000000 0.0000000000000000 80
4.9863538660885833  -8.4886689454065358 72.1342618185831839 0.0000000000000000 0.0000000000000000 81
5.0471851443269617  -8.4933592310034527 72.2116480257614626 0.0000000000000000 0.0000000000000000 82
5.1080207986329604  -8.4979099623920753 72.2867384138021549 0.0000000000000000 0.0000000000000000 83
5.1688612836217898  -8.5023231968576685 72.3595658618826860 0.0000000000000000 0.0000000000000000 84
5.2297070222007926  -8.5066010922462141 72.4301650444940890 0.0000000000000000 0.0000000000000000 85
5.2905584057205779  -8.5107459004742800 72.4985723079288107 0.0000000000000000 0.0000000000000000 86
5.3514157943043239  -8.5147599603816158 72.5648255378680744 0.0000000000000000 0.0000000000000000 87
5.4122795173348797  -8.5186456901002963 72.6289640207086364 0.0000000000000000 0.0000000000000000 88
5.4731498740801401  -8.5224055790937161 72.6910283009564751 0.0000000000000000 0.0000000000000000 89
5.5340271344382135  -8.5260421799996671 72.7510600367246951 0.0000000000000000 0.0000000000000000 90
5.5949115397849436  -8.5295581003941443 72.8091018551029663 0.0000000000000000 0.0000000000000000 91
5.6558033039074207  -8.5329559945764117 72.8651972089182181 0.0000000000000000 0.0000000000000000 92
5.7167026140082591  -8.5362385554609670 72.9193902361781454 0.0000000000000000 0.0000000000000000 93
5.7776096317665493  -8.5394085066487140 72.9717256232809177 0.0000000000000000 0.0000000000000000 94
5.8385244944425274  -8.5424685947372314 73.0222484728852805 0.0000000000000000 0.0000000000000000 95
5.8994473160140872  -8.5454215819191681 73.0710041771642977 0.0000000000000000 0.0000000000000000 96
5.9603781883344347  -8.5482702389076586 73.1180382970114948 0.0000000000000000 0.0000000000000000 97
6.0213171823011100  -8.5510173382190970 73.1633964476321239 0.0000000000000000 0.0000000000000000 98
6.0822643490278017  -8.5536656478353521 73.2071241908282246 0.0000000000000000 0.0000000000000000 99
6.1432197210111479  -8.5562179252610022 73.2492669341811506 0.0000000000000000 0.0000000000000000 100
6.2041833132858262  -8.5586769119847048 73.2898698372384700 0.0000000000000000 0.0000000000000000 101
6.2651551245619830  -8.5610453283488788 73.3289777247328516 0.0000000000000000 0.0000000000000000 102
6.3261351383398958  -8.5633258688271603 73.3666350067894086 0.0000000000000000 0.0000000000000000 103
6.3871233239975638  -8.5655211977052055 73.4028856060180033 0.0000000000000000 0.0000000000000000 104
6.4481196378475625  -8.5676339451573504 73.4377728913381844 0.0000000000000000 0.0000000000000000 105
6.5091240241601582  -8.5696667037087781 73.4713396183429097 0.0000000000000000 0.0000000000000000 106
6.5701364161502980  -8.5716220250706794 73.5036278759729953 0.0000000000000000 0.0000000000000000 107
6.6311567369265845  -8.5735024173341881 73.5346790392486866 0.0000000000000000 0.0000000000000000 108
6.6921849004008402  -8.5753103425074997 73.5645337277847489 0.0000000000000000 0.0000000000000000 109
6.7532208121573065  -8.5770482143795519 73.5932317698002265 0.0000000000000000 0.0000000000000000 110
6.8142643702809060  -8.5787183966929739 73.6208121713246726 0.0000000000000000 0.0000000000000000 111
6.8753154661443201  -8.5803232016085680 73.6473130902968194 0.0000000000000000 0.0000000000000000 112
6.9363739851539590  -8.5818648884433983 73.6727718152500586 0.0000000000000000 0.0000000000000000 113
6.9974398074551507  -8.5833456626645397 73.6972247482799645 0.0000000000000000 0.0000000000000000 114
7.0585128085970821  -8.5847676751207569 73.7207073919930025 0.0000000000000000 0.0000000000000000 115
7.1195928601582494  -8.5861330214946090 73.7432543401418883 0.0000000000000000 0.0000000000000000 116
7.1806798303333403  -8.5874437419579657 73.7648992716595018 0.0000000000000000 0.0000000000000000 117
7.2417735844825293  -8.5887018210144337 73.7856749478150675 0.0000000000000000 0.0000000000000000 118
7.3028739856443989  -8.5899091875127134 73.8056132122236477 0.0000000000000000 0.0000000000000000 119
7.3639808950136905  -8.5910677148156616 73.8247449934535496 0.0000000000000000 0.0000000000000000 120
7.4250941723851733  -8.5921792211104098 73.8431003099870793 0.0000000000000000 0.0000000000000000 121
7.4862136765650140  -8.5932454698457530 73.8607082773029049 0.0000000000000000 0.0000000000000000 122
7.5473392657510274  -8.5942681702835557 73.8775971168599312 0.0000000000000000 0.0000000000000000 123
7.6084707978831689  -8.5952489781519112 73.8937941667764591 0.0000000000000000 0.0000000000000000 124
7.6696081309657407  -8.5961894963883267 73.9093258940101947 0.0000000000000000 0.0000000000000000 125
7.7307511233626913  -8.5970912759620788 73.9242179078573542 0.0000000000000000 0.0000000000000000 126
7.7918996340673843  -8.5979558167655199 73.9384949746009994 0.0000000000000000 0.0000000000000000 127
7.8530535229482519  -8.5987845685649376 73.9521810331516463 0.0000000000000000 0.0000000000000000 128
7.9142126509716562  -8.5995789320020855 73.9652992115330790 0.0000000000000000 0.0000000000000000 129
7.9753768804032728  -8.6003402596383847 73.9778718440792034 0.0000000000000000 0.0000000000000000 130
8.0365460749892890  -8.6010698570342203 73.9899204892167859 0.0000000000000000 0.0000000000000000 131
8.0977201001186643  -8.6017689838564966 74.0014659477202770 0.0000000000000000 0.0000000000000000 132
8.1588988229676129  -8.6024388550082040 74.0125282813340988 0.0000000000000000 0.0000000000000000 133
8.2200821126275159  -8.6030806417741346 74.0231268316666160 0.0000000000000000 0.0000000000000000 134
8.2812698402173233  -8.6036954729776642 74.0332802392694305 0.0000000000000000 0.0000000000000000 135
8.3424618789815206  -8.6042844361437858 74.0430064628233566 0.0000000000000000 0.0000000000000000 136
8.4036581043746850  -8.6048485786641002 74.0523227983593557 0.0000000000000000 0.0000000000000000 137
8.4648583941335858  -8.6053889089599807 74.0612458984518014 0.0000000000000000 0.0000000000000000 138
8.5260626283377192  -8.6059063976404531 74.0697917913258550 0.0000000000000000 0.0000000000000000 139
8.5872706894592064  -8.6064019786516468 74.0779758998284024 0.0000000000000000 0.0000000000000000 140
8.6484824624028231  -8.6068765504152331 74.0858130602175180 0.0000000000000000 0.0000000000000000 141
8.7096978345369589  -8.6073309769532926 74.0933175407302258 0.0000000000000000 0.0000000000000000 142
8.7709166957162612  -8.6077660889976464 74.1005030598940664 0.0000000000000000 0.0000000000000000 143
8.8321389382966213  -8.6081826850817293 74.1073828045518184 0.0000000000000000 0.0000000000000000 144
8.8933644571431785  -8.6085815326134671 74.1139694475731119 0.0000000000000000 0.0000000000000000 145
8.9545931496319398  -8.6089633689278280 74.1202751652313196 0.0000000000000000 0.0000000000000000 146
9.0158249156456236  -8.6093289023178254 74.1263116542254750 0.0000000000000000 0.0000000000000000 147
9.0770596575641846  -8.6096788130432067 74.1320901483335319 0.0000000000000000 0.0000000000000000 148
9.1382972802506277  -8.6100137543158368 74.1376214346822593 0.0000000000000000 0.0000000000000000 149
9.1995376910325000  -8.6103343532613774 74.1429158696252841 0.0000000000000000 0.0000000000000000 150
9.2607807996795248  -8.6106412118566649 74.1479833942207307 0.0000000000000000 0.0000000000000000 151
9.3220265183777915  -8.6109349078425197 74.1528335493032529 0.0000000000000000 0.0000000000000000 152
9.3832747617008785  -8.6112159956117793 74.1574754901470925 0.0000000000000000 0.0000000000000000 153
9.4445254465782451  -8.6114850070723818 74.1619180007176624 0.0000000000000000 0.0000000000000000 154
9.5057784922612267  -8.6117424524855970 74.1661695075127056 0.0000000000000000 0.0000000000000000 155
9.5670338202869605  -8.6119888212793665 74.1702380929925909 0.0000000000000000 0.0000000000000000 156
9.6282913544404689  -8.6122245828369586 74.1741315086034660 0.0000000000000000 0.0000000000000000 157
9.6895510207151947  -8.6124501872611745 74.1778571873960857 0.0000000000000000 0.0000000000000000 158
9.7508127472722421  -8.6126660661142793 74.1814222562446730 0.0000000000000000 0.0000000000000000 159
9.8120764643984764  -8.6128726331340744 74.1848335476716159 0.0000000000000000 0.0000000000000000 160
9.8733421044637524  -8.6130702849264491 74.1880976112833537 0.0000000000000000 0.0000000000000000 161
9.9346096018774244  -8.6132594016347710 74.1912207248245181 0.0000000000000000 0.0000000000000000 162
9.9958788930443010  -8.6134403475865700 74.1942089048571063 0.0000000000000000 0.0000000000000000 163
10.0571499163202027  -8.6136134719180451 74.1970679170728289 0.0000000000000000 0.0000000000000000 164
10.1184226119672864  -8.6137791091767184 74.1998032862454693 0.0000000000000000 0.0000000000000000 165
10.1796969221092279  -8.6139375799028954 74.2024203058329448 0.0000000000000000 0.0000000000000000 166
10.2409727906863939  -8.6140891911903879 74.2049240472364318 0.0000000000000000 0.0000000000000000 167
10.3022501634111237  -8.6142342372269507 74.2073193687255781 0.0000000000000000 0.0000000000000000 168
10.3635289877231873  -8.6143729998150800 74.2096109240385715 0.0000000000000000 0.0000000000000000 169
10.4248092127455276  -8.6145057488736487 74.2118031706661583 0.0000000000000000 0.0000000000000000 170
10.4860907892403574  -8.6146327429209144 74.2139003778278692 0.0000000000000000 0.0000000000000000 171
10.5473736695656619  -8.6147542295394803 74.2159066341504285 0.0000000000000000 0.0000000000000000 172
10.6086578076321985  -8.6148704458236764 74.2178258550558780 0.0000000000000000 0.0000000000000000 173
10.6699431588610292  -8.6149816188100026 74.2196617898696047 0.0000000000000000 0.0000000000000000 174
10.7312296801416274  -8.6150879658910462 74.2214180286561174 0.0000000000000000 0.0000000000000000 175
10.7925173297906163  -8.6151896952134983 74.2230980087916805 0.0000000000000000 0.0000000000000000 176
10.8538060675111652  -8.6152870060607309 74.2247050212821762 0.0000000000000000 0.0000000000000000 177
10.9150958543530798  -8.6153800892204426 74.2262422168346063 0.0000000000000000 0.0000000000000000 178
10.9763866526736020  -8.6154691273379296 74.2277126116908619 0.0000000000000000 0.0000000000000000 179
11.0376784260989673  -8.6155542952553947 74.2291190932312190 0.0000000000000000 0.0000000000000000 180
11.0989711394866966  -8.6156357603378524 74.2304644253562458 0.0000000000000000 0.0000000000000000 181
11.1602647588886708  -8.6157136827860352 74.2317512536542807 0.0000000000000000 0.0000000000000000 182
11.2215592515150071  -8.6157882159368206 74.2329821103625704 0.0000000000000000 0.0000000000000000 183
11.2828545856987059  -8.6158595065515620 74.2341594191291279 0.0000000000000000 0.0000000000000000 184
11.3441507308610934  -8.6159276950928412 74.2352854995826306 0.0000000000000000 0.0000000000000000 185
11.4054476574780868  -8.6159929159899988 74.2363625717176632 0.0000000000000000 0.0000000000000000 186
11.4667453370472554  -8.6160552978938760 74.2373927601015566 0.0000000000000000 0.0000000000000000 187
11.5280437420556705  -8.6161149639211896 74.2383780979101005 0.0000000000000000 0.0000000000000000 188
11.5893428459485737  -8.6161720318889348 74.2393205307981532 0.0000000000000000 0.0000000000000000 189
11.6506426230988360  -8.6162266145391122 74.2402219206114324 0.0000000000000000 0.0000000000000000 190
11.7119430487771865  -8.6162788197543048 74.2410840489459360 0.0000000000000000 0.0000000000000000 191
11.7732440991232625  -8.6163287507642821 74.2419086205602952 0.0000000000000000 0.0000000000000000 192
11.8345457511174015  -8.6163765063440962 74.2426972666470277 0.0000000000000000 0.0000000000000000 193
11.8958479825532155  -8.6164221810039692 74.2434515479682631 0.0000000000000000 0.0000000000000000 194
11.9571507720109036  -8.6164658651712767 74.2441729578612666 0.0000000000000000 0.0000000000000000 195
12.0184540988313344  -8.6165076453649529 74.2448629251183831 0.0000000000000000 0.0000000000000000 196
