 # inv_tmp, energy, phys_var, phys_doublon, phys_num, step_i
0.0277169366016579  -0.1580464949494775 7.2551438712094374 0.0000000000000000 0.0000000000000000 1
0.0552799922075965  -0.3589103446061643 7.4431916641741127 0.0000000000000000 0.0000000000000000 2
0.0826885325937288  -0.5614521360492692 7.7006151124743276 0.0000000000000000 0.0000000000000000 3
0.1099425306905012  -0.7652888264030404 8.0280661966272113 0.0000000000000000 0.0000000000000000 4
0.1370425815252887  -0.9700206220552061 8.4257081537226988 0.0000000000000000 0.0000000000000000 5
0.1639899057230257  -1.1752356774181971 8.8932016157716873 0.0000000000000000 0.0000000000000000 6
0.1907863411989669  -1.3805151459962692 9.4297003174515979 0.0000000000000000 0.0000000000000000 7
0.2174343232264492  -1.5854384100004117 10.0338567117461892 0.0000000000000000 0.0000000000000000 8
0.2439368535952340  -1.7895883082411057 10.7038374024215130 0.0000000000000000 0.0000000000000000 9
0.2702974600526502  -1.9925561864483528 11.4373478803585868 0.0000000000000000 0.0000000000000000 10
0.2965201476067666  -2.1939466089013795 12.2316656677477624 0.0000000000000000 0.0000000000000000 11
0.3226093435441222  -2.3933815937900884 13.0836806567548738 0.0000000000000000 0.0000000000000000 12
0.3485698381616111  -2.5905042648737346 13.9899411969754368 0.0000000000000000 0.0000000000000000 13
0.3744067232324038  -2.7849818461184324 14.9467043494210223 0.0000000000000000 0.0000000000000000 14
0.4001253301297382  -2.9765079613247227 15.9499886852780701 0.0000000000000000 0.0000000000000000 15
0.4257311693393159  -3.1648042347009540 16.9956280580738230 0.0000000000000000 0.0000000000000000 16
0.4512298728259874  -3.3496212186992955 18.0793249041869899 0.0000000000000000 0.0000000000000000 17
0.4766271404111890  -3.5307387005754456 19.1967018103331490 0.0000000000000000 0.0000000000000000 18
0.5019286909915083  -3.7079654580711869 20.3433503071824795 0.0000000000000000 0.0000000000000000 19
0.5271402191102259  -3.8811385470019126 21.5148760853772174 0.0000000000000000 0.0000000000000000 20
0.5522673571024181  -4.0501222095788005 22.7069400658565499 0.0000000000000000 0.0000000000000000 21
0.5773156427842874  -4.2148064926771678 23.9152949760264022 0.0000000000000000 0.0000000000000000 22
0.6022904924570945  -4.3751056609563070 25.1358172765628289 0.0000000000000000 0.0000000000000000 23
0.6271971788483124  -4.5309564818830292 26.3645344443999683 0.0000000000000000 0.0000000000000000 24
0.6520408135158150  -4.6823164494859846 27.5976477434817937 0.0000000000000000 0.0000000000000000 25
0.6768263331900981  -4.8291620021748169 28.8315507070791384 0.0000000000000000 0.0000000000000000 26
0.7015584895175009  -4.9714867781568337 30.0628436171317759 0.0000000000000000 0.0000000000000000 27
0.7262418416858414  -5.1092999406450561 31.2883443018534173 0.0000000000000000 0.0000000000000000 28
0.7508807514542697  -5.2426245947420949 32.5050955880668297 0.0000000000000000 0.0000000000000000 29
0.7754793801634573  -5.3714963089709311 33.7103697447508637 0.0000000000000000 0.0000000000000000 30
0.8000416873634588  -5.4959617470950732 34.9016702439458584 0.0000000000000000 0.0000000000000000 31
0.8245714307589769  -5.6160774101658895 36.0767311485823114 0.0000000000000000 0.0000000000000000 32
0.8490721672309594  -5.7319084845788995 37.2335144171739998 0.0000000000000000 0.0000000000000000 33
0.8735472547464782  -5.8435277891578190 38.3702053949502471 0.0000000000000000 0.0000000000000000 34
0.8979998550139032  -5.9510148127097704 39.4852067413599457 0.0000000000000000 0.0000000000000000 35
0.9224329367767304  -6.0544548328798315 40.5771310257449045 0.0000000000000000 0.0000000000000000 36
0.9468492796671553  -6.1539381072488446 41.6447922065994618 0.0000000000000000 0.0000000000000000 37
0.9712514785602356  -6.2495591282506169 42.6871961950943870 0.0000000000000000 0.0000000000000000 38
0.9956419483823316  -6.3414159344435399 43.7035306901144480 0.0000000000000000 0.0000000000000000 39
1.0200229293347003  -6.4296094717980576 44.6931544595141759 0.0000000000000000 0.0000000000000000 40
1.0443964924959936  -6.5142429998294498 45.6555862302135367 0.0000000000000000 0.0000000000000000 41
1.0687645457672139  -6.5954215385209114 46.5904933377694448 0.0000000000000000 0.0000000000000000 42
1.0931288401205916  -6.6732513529811044 47.4976802739122732 0.0000000000000000 0.0000000000000000 43
1.1174909761108369  -6.7478394736243761 48.3770772580776764 0.0000000000000000 0.0000000000000000 44
1.1418524106040393  -6.8192932503335104 49.2287289461552788 0.0000000000000000 0.0000000000000000 45
1.1662144636767542  -6.8877199395634756 50.0527833765749932 0.0000000000000000 0.0000000000000000 46
1.1905783256358975  -6.9532263236808376 50.8494812405859165 0.0000000000000000 0.0000000000000000 47
1.2149450641091990  -7.0159183620268823 51.6191455503348351 0.0000000000000000 0.0000000000000000 48
1.2393156311562399  -7.0759008732660522 52.3621717653204257 0.0000000000000000 0.0000000000000000 49
1.2636908703514935  -7.1332772485609350 53.0790184252005304 0.0000000000000000 0.0000000000000000 50
1.2880715237932079  -7.1881491950252023 53.7701983249533200 0.0000000000000000 0.0000000000000000 51
1.3124582389952701  -7.2406165087701417 54.4362702572136143 0.0000000000000000 0.0000000000000000 52
1.3368515756231680  -7.2907768766989172 55.0778313363593099 0.0000000000000000 0.0000000000000000 53
1.3612520120396654  -7.3387257060326032 55.6955099097083917 0.0000000000000000 0.0000000000000000 54
1.3856599516306081  -7.3845559803867378 56.2899590530662550 0.0000000000000000 0.0000000000000000 55
1.4100757288862065  -7.4283581410672150 56.8618506408607089 0.0000000000000000 0.0000000000000000 56
1.4344996152180627  -7.4702199921263279 57.4118699752075656 0.0000000000000000 0.0000000000000000 57
1.4589318244969798  -7.5102266276186409 57.9407109534290967 0.0000000000000000 0.0000000000000000 58
1.4833725183010895  -7.5484603794235756 58.4490717497383798 0.0000000000000000 0.0000000000000000 59
1.5078218108680184  -7.5850007839578577 58.9376509839310430 0.0000000000000000 0.0000000000000000 60
1.5322797737485894  -7.6199245660846806 59.4071443479026442 0.0000000000000000 0.0000000000000000 61
1.5567464401629263  -7.6533056385357181 59.8582416595402833 0.0000000000000000 0.0000000000000000 62
1.5812218090627350  -7.6852151151938370 60.2916243129250446 0.0000000000000000 0.0000000000000000 63
1.6057058489060470  -7.7157213366353794 60.7079630937293686 0.0000000000000000 0.0000000000000000 64
1.6301985011527420  -7.7448899063977379 61.1079163291086616 0.0000000000000000 0.0000000000000000 65
1.6546996834908598  -7.7727837365173080 61.4921283421838965 0.0000000000000000 0.0000000000000000 66
1.6792092928049862  -7.7994631009715292 61.8612281823080608 0.0000000000000000 0.0000000000000000 67
1.7037272078989520  -7.8249856957535648 62.2158286036358490 0.0000000000000000 0.0000000000000000 68
1.7282532919857474  -7.8494067044068760 62.5565252660077959 0.0000000000000000 0.0000000000000000 69
1.7527873949579378  -7.8727788679468613 62.8838961337617590 0.0000000000000000 0.0000000000000000 70
1.7773293554520251  -7.8951525581961715 63.1985010497490123 0.0000000000000000 0.0000000000000000 71
1.8018790027201779  -7.9165758536575952 63.5008814635221412 0.0000000000000000 0.0000000000000000 72
1.8264361583225535  -7.9370946171423817 63.7915602943418776 0.0000000000000000 0.0000000000000000 73
1.8510006376531163  -7.9567525744611265 64.0710419112959073 0.0000000000000000 0.0000000000000000 74
1.8755722513114368  -7.9755913935691201 64.3398122144166393 0.0000000000000000 0.0000000000000000 75
1.9001508063324466  -7.9936507636364773 64.5983388022055038 0.0000000000000000 0.0000000000000000 76
1.9247361072855724  -8.0109684735867397 64.8470712124167363 0.0000000000000000 0.0000000000000000 77
1.9493279572540612  -8.0275804897144347 65.0864412243072508 0.0000000000000000 0.0000000000000000 78
1.9739261587047021  -8.0435210320532899 65.3168632118252788 0.0000000000000000 0.0000000000000000 79
1.9985305142575034  -8.0588226492220549 65.5387345383807087 0.0000000000000000 0.0000000000000000 80
2.0231408273642542  -8.0735162915245215 65.7524359849190461 0.0000000000000000 0.0000000000000000 81
2.0477569029042861  -8.0876313821247905 65.9583322040097357 0.0000000000000000 0.0000000000000000 82
2.0723785477051275  -8.1011958861579814 66.1567721935587514 0.0000000000000000 0.0000000000000000 83
2.0970055709951607  -8.1142363776713484 66.3480897845723803 0.0000000000000000 0.0000000000000000 84
2.1216377847948502  -8.1267781043209428 66.5326041381365201 0.0000000000000000 0.0000000000000000 85
2.1462750042525380  -8.1388450497753233 66.7106202474382002 0.0000000000000000 0.0000000000000000 86
2.1709170479303372  -8.1504599938005082 66.8824294412504088 0.0000000000000000 0.0000000000000000 87
2.1955637380451622  -8.1616445700196429 67.0483098858301929 0.0000000000000000 0.0000000000000000 88
2.2202149006694856  -8.1724193213574701 67.2085270826514716 0.0000000000000000 0.0000000000000000 89
2.2448703658960221  -8.1828037531933013 67.3633343598105085 0.0000000000000000 0.0000000000000000 90
2.2695299679701404  -8.1928163842578101 67.5129733553102653 0.0000000000000000 0.0000000000000000 91
2.2941935453934521  -8.2024747953181780 67.6576744907528251 0.0000000000000000 0.0000000000000000 92
2.3188609410017165  -8.2117956757038275 67.7976574342530824 0.0000000000000000 0.0000000000000000 93
2.3435320020198898  -8.2207948677307616 67.9331315516336076 0.0000000000000000 0.0000000000000000 94
2.3682065800968770  -8.2294874090872661 68.0642963451758334 0.0000000000000000 0.0000000000000000 95
2.3928845313222959  -8.2378875732469048 68.1913418793891140 0.0000000000000000 0.0000000000000000 96
2.4175657162273465  -8.2460089079772452 68.3144491934187812 0.0000000000000000 0.0000000000000000 97
2.4422499997716471  -8.2538642720140025 68.4337906998524517 0.0000000000000000 0.0000000000000000 98
2.4669372513177472  -8.2614658699712233 68.5495305698018171 0.0000000000000000 0.0000000000000000 99
2.4916273445948161  -8.2688252855579663 68.6618251042353762 0.0000000000000000 0.0000000000000000 100
2.5163201576528889  -8.2759535131716202 68.7708230916223897 0.0000000000000000 0.0000000000000000 101
2.5410155728088952  -8.2828609879371449 68.8766661520189984 0.0000000000000000 0.0000000000000000 102
2.5657134765855618  -8.2895576142600831 68.9794890677840584 0.0000000000000000 0.0000000000000000 103
2.5904137596441910  -8.2960527929600119 69.0794201011617446 0.0000000000000000 0.0000000000000000 104
2.6151163167121916  -8.3023554470490062 69.1765812990054627 0.0000000000000000 0.0000000000000000 105
2.6398210465061598  -8.3084740462180111 69.2710887849484038 0.0000000000000000 0.0000000000000000 106
2.6645278516512221  -8.3144166300919071 69.3630530393502340 0.0000000000000000 0.0000000000000000 107
2.6892366385972779  -8.3201908303119438 69.4525791673678157 0.0000000000000000 0.0000000000000000 108
2.7139473175327051  -8.3258038915020158 69.5397671555094092 0.0000000000000000 0.0000000000000000 109
2.7386598022960480  -8.3312626911730820 69.6247121170425345 0.0000000000000000 0.0000000000000000 110
2.7633740102861402  -8.3365737586178135 69.7075045266289379 0.0000000000000000 0.0000000000000000 111
2.7880898623710593  -8.3417432928452921 69.7882304445630126 0.0000000000000000 0.0000000000000000 112
2.8128072827962955  -8.3467771796035208 69.8669717309893343 0.0000000000000000 0.0000000000000000 113
2.8375261990924434  -8.3516810075352552 69.9438062504719369 0.0000000000000000 0.0000000000000000 114
2.8622465419827097  -8.3564600835106528 70.0188080672836008 0.0000000000000000 0.0000000000000000 115
2.8869682452904972  -8.3611194471781616 70.0920476317772057 0.0000000000000000 0.0000000000000000 116
2.9116912458472930  -8.3656638847731735 70.1635919581948144 0.0000000000000000 0.0000000000000000 117
2.9364154834010585  -8.3700979422219302 70.2335047942600852 0.0000000000000000 0.0000000000000000 118
2.9611409005253089  -8.3744259375764862 70.3018467828936622 0.0000000000000000 0.0000000000000000 119
2.9858674425290408  -8.3786519728146782 70.3686756163788658 0.0000000000000000 0.0000000000000000 120
3.0105950573676377  -8.3827799450373881 70.4340461832973688 0.0000000000000000 0.0000000000000000 121
3.0353236955548932  -8.3868135570937401 70.4980107085429069 0.0000000000000000 0.0000000000000000 122
3.0600533100762553  -8.3907563276633876 70.5606188867122484 0.0000000000000000 0.0000000000000000 123
3.0847838563033707  -8.3946116008235006 70.6219180091609928 0.0000000000000000 0.0000000000000000 124
3.1095152919100428  -8.3983825551266698 70.6819530850023625 0.0000000000000000 0.0000000000000000 125
3.1342475767896469  -8.4020722122146587 70.7407669563165058 0.0000000000000000 0.0000000000000000 126
3.1589806729740770  -8.4056834449915563 70.7984004078278986 0.0000000000000000 0.0000000000000000 127
3.1837145445542725  -8.4092189853787840 70.8548922712981408 0.0000000000000000 0.0000000000000000 128
3.2084491576023777  -8.4126814316731249 70.9102795248720099 0.0000000000000000 0.0000000000000000 129
3.2331844800955496  -8.4160732555280244 70.9645973876050675 0.0000000000000000 0.0000000000000000 130
3.2579204818414689  -8.4193968085771580 71.0178794093914263 0.0000000000000000 0.0000000000000000 131
3.2826571344055604  -8.4226543287184974 71.0701575565018260 0.0000000000000000 0.0000000000000000 132
3.3073944110399429  -8.4258479460759901 71.1214622929329465 0.0000000000000000 0.0000000000000000 133
3.3321322866141307  -8.4289796886551525 71.1718226577601030 0.0000000000000000 0.0000000000000000 134
3.3568707375474820  -8.4320514877081738 71.2212663386789302 0.0000000000000000 0.0000000000000000 135
3.3816097417434059  -8.4350651828229690 71.2698197419106236 0.0000000000000000 0.0000000000000000 136
3.4063492785253260  -8.4380225267503484 71.3175080586415930 0.0000000000000000 0.0000000000000000 137
3.4310893285743993  -8.4409251899823445 71.3643553281573020 0.0000000000000000 0.0000000000000000 138
3.4558298738689746  -8.4437747650942860 71.4103844978255893 0.0000000000000000 0.0000000000000000 139
3.4805708976257965  -8.4465727708625415 71.4556174800770947 0.0000000000000000 0.0000000000000000 140
3.5053123842429263  -8.4493206561691565 71.5000752065230643 0.0000000000000000 0.0000000000000000 141
3.5300543192443774  -8.4520198037041521 71.5437776793463200 0.0000000000000000 0.0000000000000000 142
3.5547966892264404  -8.4546715334756453 71.5867440200936045 0.0000000000000000 0.0000000000000000 143
3.5795394818056896  -8.4572771061374414 71.6289925159925360 0.0000000000000000 0.0000000000000000 144
3.6042826855686321  -8.4598377261432667 71.6705406639103728 0.0000000000000000 0.0000000000000000 145
3.6290262900229999  -8.4623545447363995 71.7114052120676888 0.0000000000000000 0.0000000000000000 146
3.6537702855506460  -8.4648286627828764 71.7516021996128330 0.0000000000000000 0.0000000000000000 147
3.6785146633620247  -8.4672611334562689 71.7911469941609255 0.0000000000000000 0.0000000000000000 148
3.7032594154522296  -8.4696529647813641 71.8300543273940093 0.0000000000000000 0.0000000000000000 149
3.7280045345585666  -8.4720051220439316 71.8683383288162219 0.0000000000000000 0.0000000000000000 150
3.7527500141196284  -8.4743185300732939 71.9060125577527742 0.0000000000000000 0.0000000000000000 151
3.7774958482358394  -8.4765940754041154 71.9430900336780468 0.0000000000000000 0.0000000000000000 152
3.8022420316314598  -8.4788326083234704 71.9795832649534759 0.0000000000000000 0.0000000000000000 153
3.8269885596179924  -8.4810349448090268 72.0155042760530506 0.0000000000000000 0.0000000000000000 154
3.8517354280589848  -8.4832018683638104 72.0508646333498888 0.0000000000000000 0.0000000000000000 155
3.8764826333361864  -8.4853341317528184 72.0856754695350332 0.0000000000000000 0.0000000000000000 156
3.9012301723170246  -8.4874324586464045 72.1199475067347464 0.0000000000000000 0.0000000000000000 157
3.9259780423233854  -8.4894975451752330 72.1536910783916170 0.0000000000000000 0.0000000000000000 158
3.9507262411016471  -8.4915300614012512 72.1869161499695622 0.0000000000000000 0.0000000000000000 159
3.9754747667939525  -8.4935306527089569 72.2196323385419419 0.0000000000000000 0.0000000000000000 160
4.0002236179106765  -8.4954999411210785 72.2518489313181647 0.0000000000000000 0.0000000000000000 161
4.0249727933040660  -8.4974385265424708 72.2835749031616785 0.0000000000000000 0.0000000000000000 162
4.0497222921430156  -8.4993469879359651 72.3148189331504199 0.0000000000000000 0.0000000000000000 163
4.0744721138889490  -8.5012258844336124 72.3455894202276255 0.0000000000000000 0.0000000000000000 164
4.0992222582727766  -8.5030757563867194 72.3758944979892647 0.0000000000000000 0.0000000000000000 165
4.1239727252728988  -8.5048971263577702 72.4057420486518737 0.0000000000000000 0.0000000000000000 166
4.1487235150942183  -8.5066905000572941 72.4351397162426878 0.0000000000000000 0.0000000000000000 167
4.1734746281481421  -8.5084563672285203 72.4640949190517460 0.0000000000000000 0.0000000000000000 168
4.1982260650335341  -8.5101952024825387 72.4926148613843395 0.0000000000000000 0.0000000000000000 169
4.2229778265185871  -8.5119074660865959 72.5207065446495420 0.0000000000000000 0.0000000000000000 170
4.2477299135235977  -8.5135936047078964 72.5483767778196551 0.0000000000000000 0.0000000000000000 171
4.2724823271046004  -8.5152540521153703 72.5756321872932233 0.0000000000000000 0.0000000000000000 172
4.2972350684378391  -8.5168892298415262 72.6024792261928837 0.0000000000000000 0.0000000000000000 173
4.3219881388050521  -8.5184995478065861 72.6289241831280634 0.0000000000000000 0.0000000000000000 174
4.3467415395795310  -8.5200854049068298 72.6549731904505052 0.0000000000000000 0.0000000000000000 175
4.3714952722129397  -8.5216471895691779 72.6806322320301774 0.0000000000000000 0.0000000000000000 176
4.3962493382228605  -8.5231852802736832 72.7059071505763370 0.0000000000000000 0.0000000000000000 177
4.4210037391810388  -8.5247000460457922 72.7308036545294385 0.0000000000000000 0.0000000000000000 178
4.4457584767022995  -8.5261918469199429 72.7553273245459877 0.0000000000000000 0.0000000000000000 179
4.4705135524341300  -8.5276610343760684 72.7794836195991195 0.0000000000000000 0.0000000000000000 180
4.4952689680468643  -8.5291079517505075 72.8032778827158324 0.0000000000000000 0.0000000000000000 181
4.5200247252244941  -8.5305329346226948 72.8267153463707047 0.0000000000000000 0.0000000000000000 182
4.5447808256560425  -8.5319363111790203 72.8498011375552039 0.0000000000000000 0.0000000000000000 183
4.5695372710274977  -8.5333184025550679 72.8725402825409105 0.0000000000000000 0.0000000000000000 184
4.5942940630142797  -8.5346795231574646 72.8949377113532648 0.0000000000000000 0.0000000000000000 185
4.6190512032742204  -8.5360199809665041 72.9169982619726937 0.0000000000000000 0.0000000000000000 186
4.6438086934410308  -8.5373400778205877 72.9387266842783930 0.0000000000000000 0.0000000000000000 187
4.6685665351182388  -8.5386401096835254 72.9601276437493169 0.0000000000000000 0.0000000000000000 188
4.6933247298735736  -8.5399203668957231 72.9812057249367143 0.0000000000000000 0.0000000000000000 189
4.7180832792337890  -8.5411811344100723 73.0019654347208728 0.0000000000000000 0.0000000000000000 190
4.7428421846798807  -8.5424226920135560 73.0224112053655290 0.0000000000000000 0.0000000000000000 191
4.7676014476427175  -8.5436453145352811 73.0425473973807158 0.0000000000000000 0.0000000000000000 192
4.7923610694990240  -8.5448492720418070 73.0623783022063833 0.0000000000000000 0.0000000000000000 193
4.8171210515677387  -8.5460348300204956 73.0819081447270520 0.0000000000000000 0.0000000000000000 194
4.8418813951066975  -8.5472022495515638 73.1011410856273471 0.0000000000000000 0.0000000000000000 195
4.8666421013096537  -8.5483517874695494 73.1200812235987172 0.0000000000000000 0.0000000000000000 196
