 # inv_tmp, energy, phys_var, phys_doublon, phys_num, step_i
0.0805155489756773  -0.8399225422181936 8.5529778382459263 0.0000000000000000 0.0000000000000000 1
0.1570835261097690  -1.4641597312045551 9.7833971071725241 0.0000000000000000 0.0000000000000000 2
0.2302781749096754  -2.0554436057757011 11.5793651961714676 0.0000000000000000 0.0000000000000000 3
0.3006292859697502  -2.6108472239959060 13.8414756765994582 0.0000000000000000 0.0000000000000000 4
0.3685996772269767  -3.1297036265232236 16.4638096258990991 0.0000000000000000 0.0000000000000000 5
0.4345882339078967  -3.6123444302525387 19.3428282453407014 0.0000000000000000 0.0000000000000000 6
0.4989414537417813  -4.0594043549756105 22.3827719273707260 0.0000000000000000 0.0000000000000000 7
0.5619632009243768  -4.4716151763700882 25.4991037644872236 0.0000000000000000 0.0000000000000000 8
0.6239195310574197  -4.8498742289627845 28.6207317279696625 0.0000000000000000 0.0000000000000000 9
0.6850398309365732  -5.1953826577593141 31.6910968247371656 0.0000000000000000 0.0000000000000000 10
0.7455168794960368  -5.5097275528782355 34.6680477126506617 0.0000000000000000 0.0000000000000000 11
0.8055078791523682  -5.7948668425876528 37.5225879146708508 0.0000000000000000 0.0000000000000000 12
0.8651372915784454  -6.0530334931730030 40.2368114527309899 0.0000000000000000 0.0000000000000000 13
0.9245012790796803  -6.2865995251768130 42.8014619027613463 0.0000000000000000 0.0000000000000000 14
0.9836730189345851  -6.4979392771115725 45.2135231548628980 0.0000000000000000 0.0000000000000000 15
1.0427080788670253  -6.6893181788427505 47.4741287553681701 0.0000000000000000 0.0000000000000000 16
1.1016492296706191  -6.8628182948628966 49.5869305900755322 0.0000000000000000 0.0000000000000000 17
1.1605303456516072  -7.0203004470227359 51.5569457874166872 0.0000000000000000 0.0000000000000000 18
1.2193792915714978  -7.1633962153209847 53.3898225303561844 0.0000000000000000 0.0000000000000000 19
1.2782198689299742  -7.2935207567105635 55.0914292967002979 0.0000000000000000 0.0000000000000000 20
1.3370729904682528  -7.4118977044710874 56.6676666338225203 0.0000000000000000 0.0000000000000000 21
1.3959572854134830  -7.5195890732195156 58.1244132279129602 0.0000000000000000 0.0000000000000000 22
1.4548893300067192  -7.6175251624036342 59.4675385299960908 0.0000000000000000 0.0000000000000000 23
1.5138836668302100  -7.7065313879124222 60.7029357658395980 0.0000000000000000 0.0000000000000000 24
1.5729527362946030  -7.7873505327215096 61.8365480080045913 0.0000000000000000 0.0000000000000000 25
1.6321068035566126  -7.8606600295299147 62.8743745223788579 0.0000000000000000 0.0000000000000000 26
1.6913539293868700  -7.9270846046843975 63.8224545943845882 0.0000000000000000 0.0000000000000000 27
1.7507000064526315  -7.9872050000561812 64.6868320326871640 0.0000000000000000 0.0000000000000000 28
1.8101488634932175  -8.0415636358613334 65.4735064186381521 0.0000000000000000 0.0000000000000000 29
1.8697024281162569  -8.0906680644633795 66.1883778568699768 0.0000000000000000 0.0000000000000000 30
1.9293609330020967  -8.1349929603517221 66.8371913263641062 0.0000000000000000 0.0000000000000000 31
1.9891231485819718  -8.1749812451908888 67.4254853971534658 0.0000000000000000 0.0000000000000000 32
2.0489866262772893  -8.2110447933534871 67.9585485381556396 0.0000000000000000 0.0000000000000000 33
2.1089479389387904  -8.2435650233344209 68.4413847938100162 0.0000000000000000 0.0000000000000000 34
2.1690029083020361  -8.2728935641668677 68.8786894083885954 0.0000000000000000 0.0000000000000000 35
2.2291468124722749  -8.2993530965092059 69.2748340837987087 0.0000000000000000 0.0000000000000000 36
2.2893745693077538  -8.3232384040920149 69.6338609621378026 0.0000000000000000 0.0000000000000000 37
2.3496808939128626  -8.3448176290182019 69.9594840860858369 0.0000000000000000 0.0000000000000000 38
2.4100604302362423  -8.3643336994476023 70.2550969523525595 0.0000000000000000 0.0000000000000000 39
2.4705078580275512  -8.3820058859767599 70.5237847790759815 0.0000000000000000 0.0000000000000000 40
2.5310179772145225  -8.3980314396043880 70.7683402072348997 0.0000000000000000 0.0000000000000000 41
2.5915857722090037  -8.4125872663672183 70.9912813085280447 0.0000000000000000 0.0000000000000000 42
2.6522064588256442  -8.4258315991280170 71.1948709477996431 0.0000000000000000 0.0000000000000000 43
2.7128755164788561  -8.4379056338783034 71.3811367261972691 0.0000000000000000 0.0000000000000000 44
2.7735887081780395  -8.4489351051334065 71.5518908986642685 0.0000000000000000 0.0000000000000000 45
2.8343420906190313  -8.4590317818364831 71.7087498086851980 0.0000000000000000 0.0000000000000000 46
2.8951320164094092  -8.4682948712578412 71.8531525111473854 0.0000000000000000 0.0000000000000000 47
2.9559551301935487  -8.4768123235057864 71.9863783602480112 0.0000000000000000 0.0000000000000000 48
3.0168083601782700  -8.4846620334242768 72.1095634247621007 0.0000000000000000 0.0000000000000000 49
3.0776889063126021  -8.4919129398983433 72.2237156598394563 0.0000000000000000 0.0000000000000000 50
3.1385942261518434  -8.4986260250213377 72.3297288153670621 0.0000000000000000 0.0000000000000000 51
3.1995220192393155  -8.5048552173195962 72.4283950984330289 0.0000000000000000 0.0000000000000000 52
3.2604702106692054  -8.5106482044023046 72.5204166340339498 0.0000000000000000 0.0000000000000000 53
3.3214369343495020  -8.5160471611217332 72.6064157860892863 0.0000000000000000 0.0000000000000000 54
3.3824205163631245  -8.5210893996927215 72.6869444119853654 0.0000000000000000 0.0000000000000000 55
3.4434194587253617  -8.5258079483173539 72.7624921298680221 0.0000000000000000 0.0000000000000000 56
3.5044324237541282  -8.5302320647625258 72.8334936800582113 0.0000000000000000 0.0000000000000000 57
3.5654582192036841  -8.5343876911023369 72.9003354613336683 0.0000000000000000 0.0000000000000000 58
3.6264957842598933  -8.5382978555100770 72.9633613202421429 0.0000000000000000 0.0000000000000000 59
3.6875441764537737  -8.5419830266009846 73.0228776677305405 0.0000000000000000 0.0000000000000000 60
3.7486025595180079  -8.5454614254135937 73.0791579926854240 0.0000000000000000 0.0000000000000000 61
3.8096701921865588  -8.5487492996946912 73.1324468368574259 0.0000000000000000 0.0000000000000000 62
3.8707464179192628  -8.5518611647341842 73.1829632903489795 0.0000000000000000 0.0000000000000000 63
3.9318306555199554  -8.5548100145917800 73.2309040615811853 0.0000000000000000 0.0000000000000000 64
3.9929223906073488  -8.5576075071737581 73.2764461705539816 0.0000000000000000 0.0000000000000000 65
4.0540211678916958  -8.5602641262593444 73.3197493093620665 0.0000000000000000 0.0000000000000000 66
4.1151265842066058  -8.5627893232438961 73.3609579093829467 0.0000000000000000 0.0000000000000000 67
4.1762382822435553  -8.5651916410617748 73.4002029503408266 0.0000000000000000 0.0000000000000000 68
4.2373559449363265  -8.5674788224744436 73.4376035425854070 0.0000000000000000 0.0000000000000000 69
4.2984792904433702  -8.5696579046585519 73.4732683104013660 0.0000000000000000 0.0000000000000000 70
4.3596080676776285  -8.5717353018028657 73.5072966009755362 0.0000000000000000 0.0000000000000000 71
4.4207420523355223  -8.5737168772204999 73.5397795407766921 0.0000000000000000 0.0000000000000000 72
4.4818810433792615  -8.5756080063023070 73.5708009585274993 0.0000000000000000 0.0000000000000000 73
4.5430248599294378  -8.5774136314760820 73.6004381916459920 0.0000000000000000 0.0000000000000000 74
4.6041733385276933  -8.5791383101937022 73.6287627909867410 0.0000000000000000 0.0000000000000000 75
4.6653263307321531  -8.5807862568417264 73.6558411368920076 0.0000000000000000 0.0000000000000000 76
4.7264837010112668  -8.5823613793591544 73.6817349779513222 0.0000000000000000 0.0000000000000000 77
4.7876453249043847  -8.5838673112477277 73.7065019024459502 0.0000000000000000 0.0000000000000000 78
4.8488110874202581  -8.5853074395731284 73.7301957511968453 0.0000000000000000 0.0000000000000000 79
4.9099808816470603  -8.5866849294793521 73.7528669794305358 0.0000000000000000 0.0000000000000000 80
4.9711546075500852  -8.5880027456715577 73.7745629743049562 0.0000000000000000 0.0000000000000000 81
5.0323321709354651  -8.5892636712639447 73.7953283338839441 0.0000000000000000 0.0000000000000000 82
5.0935134825604074  -8.5904703243379146 73.8152051126014470 0.0000000000000000 0.0000000000000000 83
5.1546984573723780  -8.5916251725107635 73.8342330376022176 0.0000000000000000 0.0000000000000000 84
5.2158870138615043  -8.5927305457759573 73.8524496997724924 0.0000000000000000 0.0000000000000000 85
5.2770790735120556  -8.5937886478416594 73.8698907227742438 0.0000000000000000 0.0000000000000000 86
5.3382745603404356  -8.5948015661643993 73.8865899129602752 0.0000000000000000 0.0000000000000000 87
5.3994734005084712  -8.5957712808486093 73.9025793926666239 0.0000000000000000 0.0000000000000000 88
5.4606755220019956  -8.5966996725602129 73.9178897190473805 0.0000000000000000 0.0000000000000000 89
5.5218808543659286  -8.5975885295825023 73.9325499903278001 0.0000000000000000 0.0000000000000000 90
5.5830893284879917  -8.5984395541256937 73.9465879411024503 0.0000000000000000 0.0000000000000000 91
5.6443008764241931  -8.5992543679862514 73.9600300280841765 0.0000000000000000 0.0000000000000000 92
5.7055154312599683  -8.6000345176395356 73.9729015075238578 0.0000000000000000 0.0000000000000000 93
5.7667329270016632  -8.6007814788378152 73.9852265053534808 0.0000000000000000 0.0000000000000000 94
5.8279532984936573  -8.6014966607760961 73.9970280809650944 0.0000000000000000 0.0000000000000000 95
5.8891764813570626  -8.6021814098797034 74.0083282854133131 0.0000000000000000 0.0000000000000000 96
5.9504024119464081  -8.6028370132603467 74.0191482147229607 0.0000000000000000 0.0000000000000000 97
6.0116310273212177  -8.6034647018810091 74.0295080588909116 0.0000000000000000 0.0000000000000000 98
6.0728622652298041  -8.6040656534645539 74.0394271470916152 0.0000000000000000 0.0000000000000000 99
6.1340960641029456  -8.6046409951762222 74.0489239895257612 0.0000000000000000 0.0000000000000000 100
6.1953323630554511  -8.6051918061061734 74.0580163162936316 0.0000000000000000 0.0000000000000000 101
6.2565711018939139  -8.6057191195745517 74.0667211136215116 0.0000000000000000 0.0000000000000000 102
6.3178122211291594  -8.6062239252787371 74.0750546577266391 0.0000000000000000 0.0000000000000000 103
6.3790556619921892  -8.6067071712995915 74.0830325465670114 0.0000000000000000 0.0000000000000000 104
6.4403013664525295  -8.6071697659814603 74.0906697296900916 0.0000000000000000 0.0000000000000000 105
6.5015492772381203  -8.6076125796985945 74.0979805363657249 0.0000000000000000 0.0000000000000000 106
6.5627993378560188  -8.6080364465190247 74.1049787021639474 0.0000000000000000 0.0000000000000000 107
6.6240514926132974  -8.6084421657755641 74.1116773941190701 0.0000000000000000 0.0000000000000000 108
6.6853056866376193  -8.6088305035522339 74.1180892346005180 0.0000000000000000 0.0000000000000000 109
6.7465618658971378  -8.6092021940934274 74.1242263239983004 0.0000000000000000 0.0000000000000000 110
6.8078199772193546  -8.6095579411422118 74.1301002623158354 0.0000000000000000 0.0000000000000000 111
6.8690799683087072  -8.6098984192133265 74.1357221697522988 0.0000000000000000 0.0000000000000000 112
6.9303417877626874  -8.6102242748058213 74.1411027063464019 0.0000000000000000 0.0000000000000000 113
6.9916053850863822  -8.6105361275596408 74.1462520907455769 0.0000000000000000 0.0000000000000000 114
7.0528707107052764  -8.6108345713600016 74.1511801181567876 0.0000000000000000 0.0000000000000000 115
7.1141377159763408  -8.6111201753929514 74.1558961775293284 0.0000000000000000 0.0000000000000000 116
7.1754063531973280  -8.6113934851551175 74.1604092680143339 0.0000000000000000 0.0000000000000000 117
7.2366765756142764  -8.6116550234203935 74.1647280147416836 0.0000000000000000 0.0000000000000000 118
7.2979483374272531  -8.6119052911660035 74.1688606839506406 0.0000000000000000 0.0000000000000000 119
7.3592215937943957  -8.6121447684600305 74.1728151975062389 0.0000000000000000 0.0000000000000000 120
7.4204963008342375  -8.6123739153125847 74.1765991468334249 0.0000000000000000 0.0000000000000000 121
7.4817724156264465  -8.6125931724922591 74.1802198062941329 0.0000000000000000 0.0000000000000000 122
7.5430498962110155  -8.6128029623096332 74.1836841460345795 0.0000000000000000 0.0000000000000000 123
7.6043287015859642  -8.6130036893693127 74.1869988443246768 0.0000000000000000 0.0000000000000000 124
7.6656087917036642  -8.6131957412919391 74.1901702994123156 0.0000000000000000 0.0000000000000000 125
7.7268901274658637  -8.6133794894074374 74.1932046409121142 0.0000000000000000 0.0000000000000000 126
7.7881726707174561  -8.6135552894208232 74.1961077407481326 0.0000000000000000 0.0000000000000000 127
7.8494563842391489  -8.6137234820515758 74.1988852236678866 0.0000000000000000 0.0000000000000000 128
7.9107412317390411  -8.6138843936477869 74.2015424773449581 0.0000000000000000 0.0000000000000000 129
7.9720271778432537  -8.6140383367759945 74.2040846620859327 0.0000000000000000 0.0000000000000000 130
8.0333141880856456  -8.6141856107877537 74.2065167201569835 0.0000000000000000 0.0000000000000000 131
8.0946022288967487  -8.6143265023637614 74.2088433847444122 0.0000000000000000 0.0000000000000000 132
8.1558912675919277  -8.6144612860364926 74.2110691885630018 0.0000000000000000 0.0000000000000000 133
8.2171812723589124  -8.6145902246921047 74.2131984721254554 0.0000000000000000 0.0000000000000000 134
8.2784722122447203  -8.6147135700524498 74.2152353916855958 0.0000000000000000 0.0000000000000000 135
8.3397640571420588  -8.6148315631379226 74.2171839268673637 0.0000000000000000 0.0000000000000000 136
8.4010567777752669  -8.6149444347118855 74.2190478879914224 0.0000000000000000 0.0000000000000000 137
8.4623503456858664  -8.6150524057073223 74.2208309231103271 0.0000000000000000 0.0000000000000000 138
8.5236447332177576  -8.6151556876364914 74.2225365247637257 0.0000000000000000 0.0000000000000000 139
8.5849399135021418  -8.6152544829841116 74.2241680364635101 0.0000000000000000 0.0000000000000000 140
8.6462358604421965  -8.6153489855847667 74.2257286589189960 0.0000000000000000 0.0000000000000000 141
8.7075325486975608  -8.6154393809851033 74.2272214560120602 0.0000000000000000 0.0000000000000000 142
8.7688299536686962  -8.6155258467913995 74.2286493605318185 0.0000000000000000 0.0000000000000000 143
8.8301280514811200  -8.6156085530030779 74.2300151796772951 0.0000000000000000 0.0000000000000000 144
8.8914268189695811  -8.6156876623326770 74.2313216003375231 0.0000000000000000 0.0000000000000000 145
8.9527262336622151  -8.6157633305127916 74.2325711941569324 0.0000000000000000 0.0000000000000000 146
9.0140262737647028  -8.6158357065905324 74.2337664223948934 0.0000000000000000 0.0000000000000000 147
9.0753269181444445  -8.6159049332099009 74.2349096405864231 0.0000000000000000 0.0000000000000000 148
9.1366281463148198  -8.6159711468826377 74.2360031030124503 0.0000000000000000 0.0000000000000000 149
9.1979299384195254  -8.6160344782479203 74.2370489669867482 0.0000000000000000 0.0000000000000000 150
9.2592322752170126  -8.6160950523213788 74.2380492969662384 0.0000000000000000 0.0000000000000000 151
9.3205351380650772  -8.6161529887338357 74.2390060684922588 0.0000000000000000 0.0000000000000000 152
9.3818385089055880  -8.6162084019601792 74.2399211719687031 0.0000000000000000 0.0000000000000000 153
9.4431423702493795  -8.6162614015387540 74.2407964162840699 0.0000000000000000 0.0000000000000000 154
9.5044467051613388  -8.6163120922816248 74.2416335322828473 0.0000000000000000 0.0000000000000000 155
9.5657514972456816  -8.6163605744761220 74.2424341760928428 0.0000000000000000 0.0000000000000000 156
9.6270567306314447  -8.6164069440779709 74.2431999323138143 0.0000000000000000 0.0000000000000000 157
9.6883623899581828  -8.6164512928963539 74.2439323170730887 0.0000000000000000 0.0000000000000000 158
9.7496684603619261  -8.6164937087712268 74.2446327809531823 0.0000000000000000 0.0000000000000000 159
9.8109749274613378  -8.6165342757432164 74.2453027117969953 0.0000000000000000 0.0000000000000000 160
9.8722817773441385  -8.6165730742163973 74.2459434373954110 0.0000000000000000 0.0000000000000000 161
9.9335889965537874  -8.6166101811141722 74.2465562280614222 0.0000000000000000 0.0000000000000000 162
9.9948965720764047  -8.6166456700286478 74.2471422990963958 0.0000000000000000 0.0000000000000000 163
10.0562044913279447  -8.6166796113636774 74.2477028131521024 0.0000000000000000 0.0000000000000000 164
10.1175127421416633  -8.6167120724718735 74.2482388824931405 0.0000000000000000 0.0000000000000000 165
10.1788213127558222  -8.6167431177858109 74.2487515711634103 0.0000000000000000 0.0000000000000000 166
10.2401301918016685  -8.6167728089436935 74.2492418970611681 0.0000000000000000 0.0000000000000000 167
10.3014393682916818  -8.6168012049096667 74.2497108339259029 0.0000000000000000 0.0000000000000000 168
10.3627488316080960  -8.6168283620890413 74.2501593132408573 0.0000000000000000 0.0000000000000000 169
10.4240585714916634  -8.6168543344386279 74.2505882260549015 0.0000000000000000 0.0000000000000000 170
10.4853685780307266  -8.6168791735723183 74.2509984247263617 0.0000000000000000 0.0000000000000000 171
10.5466788416505075  -8.6169029288622525 74.2513907245933069 0.0000000000000000 0.0000000000000000 172
10.6079893531027007  -8.6169256475355915 74.2517659055717303 0.0000000000000000 0.0000000000000000 173
10.6693001034553028  -8.6169473747672161 74.2521247136862854 0.0000000000000000 0.0000000000000000 174
10.7306110840827014  -8.6169681537684291 74.2524678625350418 0.0000000000000000 0.0000000000000000 175
10.7919222866560442  -8.6169880258718727 74.2527960346919116 0.0000000000000000 0.0000000000000000 176
10.8532337031338280  -8.6170070306128110 74.2531098830487508 0.0000000000000000 0.0000000000000000 177
10.9145453257527603  -8.6170252058069305 74.2534100321003052 0.0000000000000000 0.0000000000000000 178
10.9758571470188500  -8.6170425876248089 74.2536970791737048 0.0000000000000000 0.0000000000000000 179
11.0371691596987649  -8.6170592106631627 74.2539715956053215 0.0000000000000000 0.0000000000000000 180
11.0984813568113978  -8.6170751080130579 74.2542341278671358 0.0000000000000000 0.0000000000000000 181
11.1597937316196845  -8.6170903113251889 74.2544851986444883 0.0000000000000000 0.0000000000000000 182
11.2211062776226580  -8.6171048508723320 74.2547253078677443 0.0000000000000000 0.0000000000000000 183
11.2824189885477093  -8.6171187556091233 74.2549549336992811 0.0000000000000000 0.0000000000000000 184
11.3437318583430802  -8.6171320532292590 74.2551745334781117 0.0000000000000000 0.0000000000000000 185
11.4050448811705838  -8.6171447702202197 74.2553845446238086 0.0000000000000000 0.0000000000000000 186
11.4663580513985170  -8.6171569319156553 74.2555853855012060 0.0000000000000000 0.0000000000000000 187
11.5276713635947914  -8.6171685625454977 74.2557774562481825 0.0000000000000000 0.0000000000000000 188
11.5889848125202803  -8.6171796852838920 74.2559611395673613 0.0000000000000000 0.0000000000000000 189
11.6502983931223376  -8.6171903222950981 74.2561368014837342 0.0000000000000000 0.0000000000000000 190
11.7116121005285372  -8.6172004947773697 74.2563047920696420 0.0000000000000000 0.0000000000000000 191
11.7729259300405875  -8.6172102230049550 74.2564654461381792 0.0000000000000000 0.0000000000000000 192
11.8342398771284429  -8.6172195263682774 74.2566190839067986 0.0000000000000000 0.0000000000000000 193
11.8955539374245820  -8.6172284234123708 74.2567660116320951 0.0000000000000000 0.0000000000000000 194
11.9568681067184652  -8.6172369318736717 74.2569065222172213 0.0000000000000000 0.0000000000000000 195
12.0181823809511954  -8.6172450687151727 74.2570408957926986 0.0000000000000000 0.0000000000000000 196
