 # inv_tmp, energy, phys_var, phys_doublon, phys_num, step_i
0.027456  -0.844609 18.483952 1.401314 12.000000 1
0.054544  -1.334654 19.975669 1.397774 12.000000 2
0.081265  -1.832725 21.942674 1.392220 12.000000 3
0.107617  -2.337720 24.402286 1.384632 12.000000 4
0.133603  -2.848531 27.368503 1.375005 12.000000 5
0.159227  -3.364068 30.852063 1.363343 12.000000 6
0.184494  -3.883280 34.860627 1.349659 12.000000 7
0.209410  -4.405183 39.399073 1.333971 12.000000 8
0.233982  -4.928880 44.469855 1.316301 12.000000 9
0.258219  -5.453575 50.073362 1.296677 12.000000 10
0.282129  -5.978586 56.208225 1.275123 12.000000 11
0.305719  -6.503339 62.871471 1.251669 12.000000 12
0.329000  -7.027364 70.058458 1.226342 12.000000 13
0.351979  -7.550264 77.762528 1.199175 12.000000 14
0.374664  -8.071685 85.974328 1.170203 12.000000 15
0.397065  -8.591266 94.680804 1.139472 12.000000 16
0.419191  -9.108586 103.863902 1.107040 12.000000 17
0.441052  -9.623104 113.499098 1.072985 12.000000 18
0.462658  -10.134106 123.553898 1.037411 12.000000 19
0.484023  -10.640655 133.986516 1.000451 12.000000 20
0.505162  -11.141564 144.744959 0.962272 12.000000 21
0.526093  -11.635384 155.766739 0.923079 12.000000 22
0.546835  -12.120424 166.979370 0.883113 12.000000 23
0.567411  -12.594793 178.301752 0.842649 12.000000 24
0.587845  -13.056473 189.646405 0.801986 12.000000 25
0.608163  -13.503406 200.922402 0.761440 12.000000 26
0.628392  -13.933592 212.038768 0.721335 12.000000 27
0.648560  -14.345187 222.908008 0.681983 12.000000 28
0.668691  -14.736596 233.449440 0.643681 12.000000 29
0.688812  -15.106536 243.592014 0.606693 12.000000 30
0.708943  -15.454091 253.276421 0.571247 12.000000 31
0.729106  -15.778726 262.456347 0.537525 12.000000 32
0.749316  -16.080289 271.098885 0.505663 12.000000 33
0.769588  -16.358981 279.184168 0.475751 12.000000 34
0.789931  -16.615317 286.704389 0.447836 12.000000 35
0.810354  -16.850079 293.662375 0.421925 12.000000 36
0.830861  -17.064251 300.069899 0.397990 12.000000 37
0.851455  -17.258974 305.945903 0.375979 12.000000 38
0.872137  -17.435487 311.314756 0.355813 12.000000 39
0.892906  -17.595082 316.204644 0.337402 12.000000 40
0.913760  -17.739068 320.646156 0.320642 12.000000 41
0.934697  -17.868736 324.671092 0.305424 12.000000 42
0.955711  -17.985338 328.311491 0.291637 12.000000 43
0.976800  -18.090067 331.598880 0.279168 12.000000 44
0.997959  -18.184048 334.563713 0.267909 12.000000 45
1.019184  -18.268329 337.234979 0.257756 12.000000 46
1.040469  -18.343877 339.639945 0.248608 12.000000 47
1.061811  -18.411580 341.804009 0.240373 12.000000 48
1.083205  -18.472248 343.750638 0.232965 12.000000 49
1.104648  -18.526614 345.501377 0.226303 12.000000 50
1.126134  -18.575344 347.075893 0.220313 12.000000 51
1.147662  -18.619033 348.492064 0.214930 12.000000 52
1.169227  -18.658219 349.766076 0.210090 12.000000 53
1.190826  -18.693382 350.912545 0.205740 12.000000 54
1.212456  -18.724951 351.944630 0.201829 12.000000 55
1.234115  -18.753311 352.874159 0.198313 12.000000 56
1.255800  -18.778804 353.711745 0.195149 12.000000 57
1.277509  -18.801734 354.466901 0.192303 12.000000 58
1.299239  -18.822376 355.148141 0.189740 12.000000 59
1.320990  -18.840969 355.763086 0.187433 12.000000 60
1.342759  -18.857730 356.318548 0.185354 12.000000 61
1.364544  -18.872852 356.820620 0.183479 12.000000 62
1.386344  -18.886504 357.274746 0.181789 12.000000 63
1.408159  -18.898839 357.685794 0.180263 12.000000 64
1.429986  -18.909994 358.058114 0.178886 12.000000 65
1.451824  -18.920088 358.395597 0.177642 12.000000 66
1.473674  -18.929230 358.701723 0.176517 12.000000 67
1.495532  -18.937517 358.979605 0.175499 12.000000 68
1.517400  -18.945033 359.232030 0.174578 12.000000 69
1.539276  -18.951857 359.461494 0.173744 12.000000 70
1.561159  -18.958055 359.670235 0.172987 12.000000 71
1.583049  -18.963691 359.860257 0.172302 12.000000 72
1.604946  -18.968818 360.033360 0.171680 12.000000 73
1.626848  -18.973487 360.191158 0.171115 12.000000 74
1.648755  -18.977740 360.335102 0.170601 12.000000 75
1.670667  -18.981619 360.466496 0.170135 12.000000 76
1.692584  -18.985157 360.586513 0.169710 12.000000 77
1.714504  -18.988388 360.696210 0.169324 12.000000 78
1.736429  -18.991340 360.796537 0.168972 12.000000 79
1.758357  -18.994039 360.888351 0.168651 12.000000 80
1.780288  -18.996508 360.972426 0.168358 12.000000 81
1.802222  -18.998768 361.049461 0.168091 12.000000 82
1.824159  -19.000839 361.120086 0.167848 12.000000 83
1.846098  -19.002736 361.184872 0.167625 12.000000 84
1.868040  -19.004476 361.244334 0.167421 12.000000 85
1.889984  -19.006073 361.298939 0.167235 12.000000 86
1.911930  -19.007539 361.349111 0.167064 12.000000 87
1.933877  -19.008886 361.395234 0.166908 12.000000 88
1.955826  -19.010123 361.437656 0.166765 12.000000 89
1.977777  -19.011261 361.476693 0.166634 12.000000 90
1.999730  -19.012308 361.512632 0.166514 12.000000 91
2.021683  -19.013272 361.545735 0.166403 12.000000 92
2.043638  -19.014160 361.576239 0.166302 12.000000 93
2.065594  -19.014977 361.604361 0.166209 12.000000 94
2.087551  -19.015731 361.630297 0.166123 12.000000 95
2.109509  -19.016426 361.654229 0.166045 12.000000 96
2.131468  -19.017067 361.676318 0.165972 12.000000 97
2.153428  -19.017659 361.696716 0.165905 12.000000 98
2.175389  -19.018205 361.715559 0.165844 12.000000 99
2.197350  -19.018710 361.732972 0.165787 12.000000 100
2.219313  -19.019176 361.749069 0.165735 12.000000 101
2.241275  -19.019607 361.763954 0.165687 12.000000 102
2.263239  -19.020006 361.777725 0.165643 12.000000 103
2.285203  -19.020374 361.790468 0.165602 12.000000 104
2.307167  -19.020716 361.802263 0.165564 12.000000 105
2.329132  -19.021031 361.813186 0.165529 12.000000 106
2.351097  -19.021323 361.823302 0.165497 12.000000 107
2.373063  -19.021594 361.832675 0.165467 12.000000 108
2.395029  -19.021845 361.841361 0.165440 12.000000 109
2.416996  -19.022077 361.849413 0.165414 12.000000 110
2.438963  -19.022293 361.856879 0.165391 12.000000 111
2.460930  -19.022492 361.863804 0.165369 12.000000 112
2.482898  -19.022678 361.870228 0.165349 12.000000 113
2.504866  -19.022849 361.876189 0.165330 12.000000 114
2.526834  -19.023009 361.881722 0.165312 12.000000 115
2.548802  -19.023157 361.886858 0.165296 12.000000 116
2.570771  -19.023294 361.891627 0.165282 12.000000 117
2.592739  -19.023422 361.896057 0.165268 12.000000 118
2.614708  -19.023540 361.900171 0.165255 12.000000 119
2.636677  -19.023650 361.903994 0.165243 12.000000 120
2.658647  -19.023752 361.907546 0.165232 12.000000 121
2.680616  -19.023847 361.910848 0.165222 12.000000 122
2.702586  -19.023935 361.913917 0.165212 12.000000 123
2.724556  -19.024017 361.916771 0.165203 12.000000 124
2.746526  -19.024094 361.919425 0.165195 12.000000 125
2.768496  -19.024165 361.921893 0.165188 12.000000 126
2.790466  -19.024231 361.924189 0.165180 12.000000 127
2.812436  -19.024292 361.926325 0.165174 12.000000 128
2.834406  -19.024349 361.928312 0.165168 12.000000 129
2.856377  -19.024402 361.930162 0.165162 12.000000 130
2.878347  -19.024451 361.931883 0.165157 12.000000 131
2.900318  -19.024497 361.933486 0.165152 12.000000 132
2.922289  -19.024540 361.934978 0.165147 12.000000 133
2.944260  -19.024580 361.936367 0.165143 12.000000 134
2.966231  -19.024617 361.937660 0.165139 12.000000 135
2.988201  -19.024652 361.938865 0.165135 12.000000 136
3.010172  -19.024684 361.939987 0.165132 12.000000 137
3.032144  -19.024714 361.941032 0.165129 12.000000 138
3.054115  -19.024742 361.942006 0.165126 12.000000 139
3.076086  -19.024768 361.942913 0.165123 12.000000 140
3.098057  -19.024792 361.943759 0.165120 12.000000 141
3.120028  -19.024815 361.944546 0.165118 12.000000 142
3.142000  -19.024836 361.945280 0.165116 12.000000 143
3.163971  -19.024855 361.945965 0.165114 12.000000 144
3.185942  -19.024874 361.946603 0.165112 12.000000 145
3.207914  -19.024891 361.947197 0.165110 12.000000 146
3.229885  -19.024906 361.947752 0.165108 12.000000 147
3.251857  -19.024921 361.948268 0.165107 12.000000 148
3.273828  -19.024935 361.948750 0.165105 12.000000 149
3.295800  -19.024948 361.949200 0.165104 12.000000 150
3.317771  -19.024960 361.949619 0.165102 12.000000 151
3.339743  -19.024971 361.950010 0.165101 12.000000 152
3.361714  -19.024982 361.950374 0.165100 12.000000 153
3.383686  -19.024991 361.950714 0.165099 12.000000 154
3.405658  -19.025000 361.951032 0.165098 12.000000 155
3.427629  -19.025009 361.951327 0.165097 12.000000 156
3.449601  -19.025017 361.951603 0.165096 12.000000 157
3.471573  -19.025024 361.951861 0.165096 12.000000 158
3.493545  -19.025031 361.952101 0.165095 12.000000 159
3.515516  -19.025037 361.952326 0.165094 12.000000 160
3.537488  -19.025043 361.952535 0.165094 12.000000 161
3.559460  -19.025049 361.952730 0.165093 12.000000 162
3.581432  -19.025054 361.952912 0.165092 12.000000 163
3.603403  -19.025059 361.953082 0.165092 12.000000 164
3.625375  -19.025064 361.953241 0.165091 12.000000 165
3.647347  -19.025068 361.953389 0.165091 12.000000 166
3.669319  -19.025072 361.953528 0.165091 12.000000 167
3.691291  -19.025075 361.953657 0.165090 12.000000 168
3.713262  -19.025079 361.953777 0.165090 12.000000 169
3.735234  -19.025082 361.953890 0.165089 12.000000 170
3.757206  -19.025085 361.953995 0.165089 12.000000 171
3.779178  -19.025088 361.954093 0.165089 12.000000 172
3.801150  -19.025091 361.954184 0.165088 12.000000 173
3.823122  -19.025093 361.954270 0.165088 12.000000 174
3.845093  -19.025095 361.954350 0.165088 12.000000 175
3.867065  -19.025097 361.954424 0.165088 12.000000 176
3.889037  -19.025099 361.954494 0.165088 12.000000 177
3.911009  -19.025101 361.954559 0.165087 12.000000 178
3.932981  -19.025103 361.954619 0.165087 12.000000 179
3.954953  -19.025105 361.954676 0.165087 12.000000 180
3.976925  -19.025106 361.954729 0.165087 12.000000 181
3.998897  -19.025108 361.954778 0.165087 12.000000 182
4.020869  -19.025109 361.954825 0.165087 12.000000 183
4.042840  -19.025110 361.954868 0.165086 12.000000 184
4.064812  -19.025111 361.954908 0.165086 12.000000 185
4.086784  -19.025112 361.954946 0.165086 12.000000 186
4.108756  -19.025113 361.954981 0.165086 12.000000 187
4.130728  -19.025114 361.955014 0.165086 12.000000 188
4.152700  -19.025115 361.955044 0.165086 12.000000 189
4.174672  -19.025116 361.955073 0.165086 12.000000 190
4.196644  -19.025117 361.955100 0.165086 12.000000 191
4.218616  -19.025117 361.955125 0.165086 12.000000 192
4.240588  -19.025118 361.955148 0.165086 12.000000 193
4.262560  -19.025119 361.955170 0.165085 12.000000 194
4.284532  -19.025119 361.955190 0.165085 12.000000 195
4.306504  -19.025120 361.955209 0.165085 12.000000 196
4.328475  -19.025120 361.955227 0.165085 12.000000 197
4.350447  -19.025121 361.955244 0.165085 12.000000 198
4.372419  -19.025121 361.955259 0.165085 12.000000 199
4.394391  -19.025122 361.955274 0.165085 12.000000 200
4.416363  -19.025122 361.955287 0.165085 12.000000 201
4.438335  -19.025122 361.955300 0.165085 12.000000 202
4.460307  -19.025123 361.955312 0.165085 12.000000 203
4.482279  -19.025123 361.955323 0.165085 12.000000 204
4.504251  -19.025123 361.955333 0.165085 12.000000 205
4.526223  -19.025124 361.955343 0.165085 12.000000 206
4.548195  -19.025124 361.955352 0.165085 12.000000 207
4.570167  -19.025124 361.955360 0.165085 12.000000 208
4.592139  -19.025124 361.955368 0.165085 12.000000 209
4.614111  -19.025125 361.955376 0.165085 12.000000 210
4.636083  -19.025125 361.955382 0.165085 12.000000 211
4.658055  -19.025125 361.955389 0.165085 12.000000 212
4.680027  -19.025125 361.955395 0.165085 12.000000 213
4.701998  -19.025125 361.955401 0.165085 12.000000 214
4.723970  -19.025125 361.955406 0.165085 12.000000 215
4.745942  -19.025126 361.955411 0.165085 12.000000 216
4.767914  -19.025126 361.955415 0.165085 12.000000 217
4.789886  -19.025126 361.955420 0.165085 12.000000 218
4.811858  -19.025126 361.955424 0.165085 12.000000 219
4.833830  -19.025126 361.955427 0.165085 12.000000 220
4.855802  -19.025126 361.955431 0.165085 12.000000 221
4.877774  -19.025126 361.955434 0.165085 12.000000 222
4.899746  -19.025126 361.955437 0.165085 12.000000 223
4.921718  -19.025126 361.955440 0.165085 12.000000 224
4.943690  -19.025127 361.955443 0.165085 12.000000 225
4.965662  -19.025127 361.955445 0.165085 12.000000 226
4.987634  -19.025127 361.955448 0.165085 12.000000 227
5.009606  -19.025127 361.955450 0.165085 12.000000 228
5.031578  -19.025127 361.955452 0.165085 12.000000 229
5.053550  -19.025127 361.955454 0.165085 12.000000 230
5.075522  -19.025127 361.955455 0.165085 12.000000 231
5.097494  -19.025127 361.955457 0.165085 12.000000 232
5.119466  -19.025127 361.955459 0.165085 12.000000 233
5.141437  -19.025127 361.955460 0.165085 12.000000 234
5.163409  -19.025127 361.955462 0.165085 12.000000 235
5.185381  -19.025127 361.955463 0.165085 12.000000 236
5.207353  -19.025127 361.955464 0.165085 12.000000 237
5.229325  -19.025127 361.955465 0.165085 12.000000 238
5.251297  -19.025127 361.955466 0.165085 12.000000 239
5.273269  -19.025127 361.955467 0.165085 12.000000 240
5.295241  -19.025127 361.955468 0.165085 12.000000 241
5.317213  -19.025127 361.955469 0.165085 12.000000 242
5.339185  -19.025127 361.955470 0.165085 12.000000 243
5.361157  -19.025127 361.955470 0.165085 12.000000 244
5.383129  -19.025127 361.955471 0.165084 12.000000 245
5.405101  -19.025127 361.955472 0.165084 12.000000 246
5.427073  -19.025127 361.955472 0.165084 12.000000 247
5.449045  -19.025127 361.955473 0.165084 12.000000 248
5.471017  -19.025127 361.955474 0.165084 12.000000 249
5.492989  -19.025127 361.955474 0.165084 12.000000 250
5.514961  -19.025127 361.955474 0.165084 12.000000 251
5.536933  -19.025127 361.955475 0.165084 12.000000 252
5.558905  -19.025127 361.955475 0.165084 12.000000 253
5.580877  -19.025127 361.955476 0.165084 12.000000 254
5.602849  -19.025127 361.955476 0.165084 12.000000 255
5.624820  -19.025127 361.955476 0.165084 12.000000 256
5.646792  -19.025127 361.955477 0.165084 12.000000 257
5.668764  -19.025128 361.955477 0.165084 12.000000 258
5.690736  -19.025128 361.955477 0.165084 12.000000 259
5.712708  -19.025128 361.955478 0.165084 12.000000 260
5.734680  -19.025128 361.955478 0.165084 12.000000 261
5.756652  -19.025128 361.955478 0.165084 12.000000 262
5.778624  -19.025128 361.955478 0.165084 12.000000 263
5.800596  -19.025128 361.955478 0.165084 12.000000 264
5.822568  -19.025128 361.955479 0.165084 12.000000 265
5.844540  -19.025128 361.955479 0.165084 12.000000 266
5.866512  -19.025128 361.955479 0.165084 12.000000 267
5.888484  -19.025128 361.955479 0.165084 12.000000 268
5.910456  -19.025128 361.955479 0.165084 12.000000 269
5.932428  -19.025128 361.955479 0.165084 12.000000 270
5.954400  -19.025128 361.955479 0.165084 12.000000 271
5.976372  -19.025128 361.955480 0.165084 12.000000 272
5.998344  -19.025128 361.955480 0.165084 12.000000 273
6.020316  -19.025128 361.955480 0.165084 12.000000 274
6.042288  -19.025128 361.955480 0.165084 12.000000 275
6.064260  -19.025128 361.955480 0.165084 12.000000 276
6.086232  -19.025128 361.955480 0.165084 12.000000 277
6.108203  -19.025128 361.955480 0.165084 12.000000 278
6.130175  -19.025128 361.955480 0.165084 12.000000 279
6.152147  -19.025128 361.955480 0.165084 12.000000 280
6.174119  -19.025128 361.955480 0.165084 12.000000 281
6.196091  -19.025128 361.955480 0.165084 12.000000 282
6.218063  -19.025128 361.955480 0.165084 12.000000 283
6.240035  -19.025128 361.955480 0.165084 12.000000 284
6.262007  -19.025128 361.955481 0.165084 12.000000 285
6.283979  -19.025128 361.955481 0.165084 12.000000 286
6.305951  -19.025128 361.955481 0.165084 12.000000 287
6.327923  -19.025128 361.955481 0.165084 12.000000 288
6.349895  -19.025128 361.955481 0.165084 12.000000 289
6.371867  -19.025128 361.955481 0.165084 12.000000 290
6.393839  -19.025128 361.955481 0.165084 12.000000 291
6.415811  -19.025128 361.955481 0.165084 12.000000 292
6.437783  -19.025128 361.955481 0.165084 12.000000 293
6.459755  -19.025128 361.955481 0.165084 12.000000 294
6.481727  -19.025128 361.955481 0.165084 12.000000 295
6.503699  -19.025128 361.955481 0.165084 12.000000 296
6.525671  -19.025128 361.955481 0.165084 12.000000 297
6.547643  -19.025128 361.955481 0.165084 12.000000 298
6.569615  -19.025128 361.955481 0.165084 12.000000 299
6.591586  -19.025128 361.955481 0.165084 12.000000 300
6.613558  -19.025128 361.955481 0.165084 12.000000 301
6.635530  -19.025128 361.955481 0.165084 12.000000 302
6.657502  -19.025128 361.955481 0.165084 12.000000 303
6.679474  -19.025128 361.955481 0.165084 12.000000 304
6.701446  -19.025128 361.955481 0.165084 12.000000 305
6.723418  -19.025128 361.955481 0.165084 12.000000 306
6.745390  -19.025128 361.955481 0.165084 12.000000 307
6.767362  -19.025128 361.955481 0.165084 12.000000 308
6.789334  -19.025128 361.955481 0.165084 12.000000 309
6.811306  -19.025128 361.955481 0.165084 12.000000 310
6.833278  -19.025128 361.955481 0.165084 12.000000 311
6.855250  -19.025128 361.955481 0.165084 12.000000 312
6.877222  -19.025128 361.955481 0.165084 12.000000 313
6.899194  -19.025128 361.955481 0.165084 12.000000 314
6.921166  -19.025128 361.955481 0.165084 12.000000 315
6.943138  -19.025128 361.955481 0.165084 12.000000 316
6.965110  -19.025128 361.955481 0.165084 12.000000 317
6.987082  -19.025128 361.955481 0.165084 12.000000 318
7.009054  -19.025128 361.955481 0.165084 12.000000 319
7.031026  -19.025128 361.955481 0.165084 12.000000 320
7.052998  -19.025128 361.955481 0.165084 12.000000 321
7.074969  -19.025128 361.955481 0.165084 12.000000 322
7.096941  -19.025128 361.955481 0.165084 12.000000 323
7.118913  -19.025128 361.955481 0.165084 12.000000 324
7.140885  -19.025128 361.955481 0.165084 12.000000 325
7.162857  -19.025128 361.955481 0.165084 12.000000 326
7.184829  -19.025128 361.955481 0.165084 12.000000 327
7.206801  -19.025128 361.955481 0.165084 12.000000 328
7.228773  -19.025128 361.955481 0.165084 12.000000 329
7.250745  -19.025128 361.955481 0.165084 12.000000 330
7.272717  -19.025128 361.955481 0.165084 12.000000 331
7.294689  -19.025128 361.955481 0.165084 12.000000 332
7.316661  -19.025128 361.955481 0.165084 12.000000 333
7.338633  -19.025128 361.955481 0.165084 12.000000 334
7.360605  -19.025128 361.955481 0.165084 12.000000 335
7.382577  -19.025128 361.955481 0.165084 12.000000 336
7.404549  -19.025128 361.955481 0.165084 12.000000 337
7.426521  -19.025128 361.955481 0.165084 12.000000 338
7.448493  -19.025128 361.955481 0.165084 12.000000 339
7.470465  -19.025128 361.955481 0.165084 12.000000 340
7.492437  -19.025128 361.955481 0.165084 12.000000 341
7.514409  -19.025128 361.955481 0.165084 12.000000 342
7.536381  -19.025128 361.955481 0.165084 12.000000 343
7.558352  -19.025128 361.955481 0.165084 12.000000 344
7.580324  -19.025128 361.955481 0.165084 12.000000 345
7.602296  -19.025128 361.955481 0.165084 12.000000 346
7.624268  -19.025128 361.955481 0.165084 12.000000 347
7.646240  -19.025128 361.955481 0.165084 12.000000 348
7.668212  -19.025128 361.955481 0.165084 12.000000 349
7.690184  -19.025128 361.955481 0.165084 12.000000 350
7.712156  -19.025128 361.955481 0.165084 12.000000 351
7.734128  -19.025128 361.955481 0.165084 12.000000 352
7.756100  -19.025128 361.955481 0.165084 12.000000 353
7.778072  -19.025128 361.955481 0.165084 12.000000 354
7.800044  -19.025128 361.955481 0.165084 12.000000 355
7.822016  -19.025128 361.955481 0.165084 12.000000 356
7.843988  -19.025128 361.955481 0.165084 12.000000 357
7.865960  -19.025128 361.955481 0.165084 12.000000 358
7.887932  -19.025128 361.955481 0.165084 12.000000 359
7.909904  -19.025128 361.955481 0.165084 12.000000 360
7.931876  -19.025128 361.955481 0.165084 12.000000 361
7.953848  -19.025128 361.955481 0.165084 12.000000 362
7.975820  -19.025128 361.955481 0.165084 12.000000 363
7.997792  -19.025128 361.955481 0.165084 12.000000 364
8.019764  -19.025128 361.955481 0.165084 12.000000 365
