 # inv_tmp, energy, phys_var, phys_doublon, phys_num, step_i
0.0378720940788257  -0.8093322708078883 13.4194968746901644 0.8937780323221755 8.0000000000000000 1
0.0750489769586121  -1.2985280026657047 15.1762243780951440 0.8874022058317896 8.0000000000000000 2
0.1115031262083178  -1.8101504776681201 17.4658767151623735 0.8775575019410249 8.0000000000000000 3
0.1472146550031003  -2.3424158405392683 20.3292267592496572 0.8639825950050271 7.9999999999999982 4
0.1821731238826535  -2.8928392227685711 23.7958303245496232 0.8464785654117333 8.0000000000000000 5
0.2163791684574110  -3.4582036965444298 27.8802684304397488 0.8249345040855753 8.0000000000000000 6
0.2498457317178886  -4.0345774319970964 32.5787113070294509 0.7993530363957383 8.0000000000000000 7
0.2825987052553083  -4.6173860759380077 37.8662741658563320 0.7698722414615566 8.0000000000000018 8
0.3146768368973717  -5.2015410396110493 43.6956464502542019 0.7367798949256269 8.0000000000000018 9
0.3461308423053054  -5.7816176876805532 49.9973988735720667 0.7005161977944159 8.0000000000000000 10
0.3770217487495310  -6.3520713936728033 56.6821970929822285 0.6616623555302130 7.9999999999999982 11
0.4074185851503151  -6.9074747072358438 63.6448933916211246 0.6209144521806451 7.9999999999999982 12
0.4373956026372016  -7.4427558101578297 70.7701725636451329 0.5790446200661619 8.0000000000000018 13
0.4670292577120495  -7.9534173451369021 77.9391608859745872 0.5368539025537469 7.9999999999999991 14
0.4963952110060746  -8.4357160078099014 85.0362362522805313 0.4951227860541464 7.9999999999999982 15
0.5255655851989371  -8.8867873034102072 91.9552509889425949 0.4545656954257197 8.0000000000000000 16
0.5546066854946362  -9.3047063608266303 98.6045043913321422 0.4157947487088999 8.0000000000000000 17
0.5835773203447261  -9.6884836763950517 104.9100434958648123 0.3792960938939263 8.0000000000000000 18
0.6125277803613863  -10.0380025499909848 110.8171617788776757 0.3454197911593533 8.0000000000000000 19
0.6414994546306825  -10.3539111549648783 116.2902346793311210 0.3143820661247640 8.0000000000000018 20
0.6705249998502982  -10.6374855663501577 121.3112245600023869 0.2862772713737327 7.9999999999999982 21
0.6996289375702227  -10.8904804206782213 125.8772831186375072 0.2610962138939261 8.0000000000000018 22
0.7288285401471735  -11.1149817359116501 129.9978830961756842 0.2387475516778271 8.0000000000000018 23
0.7581348728717366  -11.3132727666001607 133.6918492327987451 0.2190795058245369 8.0000000000000018 24
0.7875538809314694  -11.4877196476552630 136.9845626410345005 0.2018999130226775 7.9999999999999991 25
0.8170874377926171  -11.6406798034728709 139.9055108387912867 0.1869934398853924 8.0000000000000018 26
0.8467342999781408  -11.7744331384639374 142.4862662350200537 0.1741354571811615 7.9999999999999991 27
0.8764909380448107  -11.8911340314815526 144.7589078912124307 0.1631025684501167 8.0000000000000000 28
0.9063522328998279  -11.9927810564684556 146.7548564296924383 0.1536801010724230 8.0000000000000000 29
0.9363120401354419  -12.0812009544603534 148.5040670524929851 0.1456670282470574 7.9999999999999991 30
0.9663636334574873  -12.1580434666962560 150.0345158871999161 0.1388788391284923 7.9999999999999982 31
0.9965000426324873  -12.2247840059585702 151.3719152524045626 0.1331488518794437 7.9999999999999982 32
1.0267143028346586  -12.2827316399317681 152.5395996819410698 0.1283284032789151 7.9999999999999991 33
1.0569996318565749  -12.3330403820111876 153.5585335149191906 0.1242862720257405 8.0000000000000000 34
1.0873495501527584  -12.3767222694541204 154.4474004631735511 0.1209076157231116 8.0000000000000000 35
1.1177579566850278  -12.4146611253234251 155.2227445853983454 0.1180926318395821 7.9999999999999982 36
1.1482191714080656  -12.4476262395562589 155.8991399229264232 0.1157550942737905 7.9999999999999982 37
1.1787279531990917  -12.4762854683597215 156.4893724834378759 0.1138208702196839 8.0000000000000018 38
1.2092795002154986  -12.5012174489851837 157.0046233293116416 0.1122264859850153 7.9999999999999982 39
1.2398694381068787  -12.5229227701182175 157.4546453901979248 0.1109177836919614 8.0000000000000000 40
1.2704938002178054  -12.5418340380271278 157.8479294738685326 0.1098486916233234 8.0000000000000000 41
1.3011490028757502  -12.5583248454607244 158.1918569976025992 0.1089801176990028 8.0000000000000000 42
1.3318318180340287  -12.5727176926498849 158.4928383871709059 0.1082789667249987 8.0000000000000000 43
1.3625393448985961  -12.5852909345155179 158.7564370466002401 0.1077172764634305 8.0000000000000000 44
1.3932689816767831  -12.5962848406242713 158.9874794142895951 0.1072714642935688 8.0000000000000000 45
1.4240183982159558  -12.6059068585488738 159.1901519873092923 0.1069216745597924 7.9999999999999982 46
1.4547855100249756  -12.6143361700009180 159.3680863900161171 0.1066512161056345 7.9999999999999982 47
1.4855684539700733  -12.6217276244975487 159.5244336406061620 0.1064460795916821 8.0000000000000000 48
1.5163655657920247  -12.6282151288583613 159.6619287700566474 0.1062945247184396 8.0000000000000018 49
1.5471753594896507  -12.6339145634958054 159.7829469007472767 0.1061867282359376 7.9999999999999991 50
1.5779965085449050  -12.6389262889154175 159.8895518169916272 0.1061144844934087 8.0000000000000000 51
1.6088278289187783  -12.6433372984937655 159.9835379704829847 0.1060709511820569 8.0000000000000018 52
1.6396682637185889  -12.6472230666973822 160.0664667694367438 0.1060504337999822 7.9999999999999982 53
1.6705168694210666  -12.6506491355746764 160.1396979068779274 0.1060482031902138 7.9999999999999982 54
1.7013728035283311  -12.6536724766496995 160.2044163946889057 0.1060603412545225 7.9999999999999982 55
1.7322353135326896  -12.6563426602758859 160.2616558877249986 0.1060836106207733 8.0000000000000018 56
1.7631037270691292  -12.6587028600445954 160.3123188074896746 0.1061153446396382 7.9999999999999991 57
1.7939774431399853  -12.6607907159446036 160.3571937078094152 0.1061533546108503 8.0000000000000000 58
1.8248559243034503  -12.6626390765839449 160.3969702654929677 0.1061958515952301 8.0000000000000000 59
1.8557386897256445  -12.6642766378605778 160.4322522266730289 0.1062413805628557 8.0000000000000000 60
1.8866253090042986  -12.6657284929500662 160.4635685938302458 0.1062887649666765 8.0000000000000018 61
1.9175153966804073  -12.6670166063167784 160.4913832987714954 0.1063370601211562 8.0000000000000000 62
1.9484086073622227  -12.6681602226035217 160.5161035724200929 0.1063855140133634 8.0000000000000000 63
1.9793046313935414  -12.6691762196710620 160.5380871925612780 0.1064335343849629 8.0000000000000000 64
2.0102031910052913  -12.6700794137072990 160.5576487650931199 0.1064806611029077 7.9999999999999982 65
2.0411040368959319  -12.6708828231719206 160.5750651723232068 0.1065265429887798 8.0000000000000000 66
2.0720069451921188  -12.6715978973590691 160.5905803029585286 0.1065709184056483 7.9999999999999964 67
2.1029117147464431  -12.6722347145220446 160.6044091622259486 0.1066135990104288 8.0000000000000000 68
2.1338181647339320  -12.6728021537895845 160.6167414466694936 0.1066544561720138 8.0000000000000000 69
2.1647261325132994  -12.6733080444945791 160.6277446562701527 0.1066934096334392 8.0000000000000018 70
2.1956354717228534  -12.6737592960167369 160.6375668063345756 0.1067304180622481 8.0000000000000018 71
2.2265460505844179  -12.6741620107984083 160.6463387928708926 0.1067654711888583 7.9999999999999991 72
2.2574577503916786  -12.6745215828151778 160.6541764576864466 0.1067985832797230 8.0000000000000000 73
2.2883704641621243  -12.6748427834605302 160.6611823930329592 0.1068297877317346 8.0000000000000000 74
2.3192840954341443  -12.6751298365289902 160.6674475201314465 0.1068591326077989 8.0000000000000018 75
2.3501985571929858  -12.6753864837466033 160.6730524711937846 0.1068866769617582 8.0000000000000000 76
2.3811137709111656  -12.6756160420968875 160.6780688005188722 0.1069124878246913 8.0000000000000000 77
2.4120296656906022  -12.6758214540179566 160.6825600467651611 0.1069366377447420 7.9999999999999982 78
2.4429461774951844  -12.6760053313992636 160.6865826655212004 0.1069592027896145 8.0000000000000018 79
2.4738632484638212  -12.6761699941798209 160.6901868487304057 0.1069802609352120 8.0000000000000000 80
2.5047808262951299  -12.6763175042414264 160.6934172453175620 0.1069998907759935 8.0000000000000018 81
2.5356988636959610  -12.6764496951970003 160.6963135954645168 0.1070181705028382 8.0000000000000018 82
2.5666173178868203  -12.6765681985942535 160.6989112893442382 0.1070351771028256 8.0000000000000000 83
2.5975361501580552  -12.6766744669857729 160.7012418597065846 0.1070509857426168 8.0000000000000000 84
2.6284553254713541  -12.6767697942571349 160.7033334164897269 0.1070656693032575 8.0000000000000000 85
2.6593748121017269  -12.6768553335537177 160.7052110305755832 0.1070792980394083 8.0000000000000018 86
2.6902945813156656  -12.6769321131021968 160.7068970728927297 0.1070919393403750 8.0000000000000000 87
2.7212146070816736  -12.6770010501849466 160.7084115142820337 0.1071036575740000 8.0000000000000000 88
2.7521348658097660  -12.6770629634920660 160.7097721908513961 0.1071145139975819 8.0000000000000000 89
2.7830553361169170  -12.6771185840474843 160.7109950389546782 0.1071245667226140 7.9999999999999964 90
2.8139759986157671  -12.6771685648805246 160.7120943034100549 0.1071338707223365 8.0000000000000000 91
2.8448968357241822  -12.6772134895928232 160.7130827221249376 0.1071424778729591 8.0000000000000036 92
2.8758178314935332  -12.6772538799519072 160.7139716899050939 0.1071504370209732 8.0000000000000018 93
2.9067389714537848  -12.6772902026263257 160.7147714038826507 0.1071577940702908 7.9999999999999973 94
2.9376602424736786  -12.6773228751630871 160.7154909927022572 0.1071645920840499 8.0000000000000000 95
2.9685816326344976  -12.6773522712958648 160.7161386313439095 0.1071708713968570 7.9999999999999982 96
2.9995031311160347  -12.6773787256617450 160.7167216432387420 0.1071766697340139 7.9999999999999982 97
3.0304247280935575  -12.6774025379946593 160.7172465911299355 0.1071820223349270 7.9999999999999982 98
3.0613464146446607  -12.6774239768557653 160.7177193579630909 0.1071869620784431 8.0000000000000018 99
3.0922681826650424  -12.6774432829534991 160.7181452189351774 0.1071915196083071 8.0000000000000000 100
3.1231900247923079  -12.6774606721001533 160.7185289057015893 0.1071957234573205 8.0000000000000000 101
3.1541119343370210  -12.6774763378458921 160.7188746636193741 0.1071996001690875 8.0000000000000018 102
3.1850339052202967  -12.6774904538266675 160.7191863028071168 0.1072031744164999 8.0000000000000000 103
3.2159559319172910  -12.6775031758580035 160.7194672437087206 0.1072064691163254 8.0000000000000000 104
3.2468780094060219  -12.6775146438030220 160.7197205577701311 0.1072095055394405 7.9999999999999991 105
3.2778001331209965  -12.6775249832398060 160.7199490037684200 0.1072123034163932 8.0000000000000000 106
3.3087222989111940  -12.6775343069502320 160.7201550602705424 0.1072148810380992 8.0000000000000000 107
3.3396445030019812  -12.6775427162499543 160.7203409546457067 0.1072172553515697 7.9999999999999991 108
3.3705667419605763  -12.6775503021769946 160.7205086890070334 0.1072194420506456 8.0000000000000000 109
3.4014890126647366  -12.6775571465542853 160.7206600634154654 0.1072214556617722 8.0000000000000018 110
3.4324113122743536  -12.6775633229399745 160.7207966966425943 0.1072233096248990 7.9999999999999982 111
3.4633336382056834  -12.6775688974776450 160.7209200447561273 0.1072250163696214 7.9999999999999973 112
3.4942559881079629  -12.6775739296571555 160.7210314177600878 0.1072265873867131 8.0000000000000018 113
3.5251783598421893  -12.6775784729958474 160.7211319944998422 0.1072280332952149 7.9999999999999991 114
3.5561007514618517  -12.6775825756486142 160.7212228360170343 0.1072293639052632 7.9999999999999982 115
3.5870231611954413  -12.6775862809544080 160.7213048975175411 0.1072305882768462 8.0000000000000000 116
3.6179455874305724  -12.6775896279259399 160.7213790391015209 0.1072317147746855 8.0000000000000000 117
3.6488680286995510  -12.6775926516887232 160.7214460353856680 0.1072327511194410 8.0000000000000000 118
3.6797904836662787  -12.6775953838746567 160.7215065841340902 0.1072337044354350 8.0000000000000000 119
3.7107129511143451  -12.6775978529750901 160.7215613140025994 0.1072345812950913 8.0000000000000000 120
3.7416354299362129  -12.6776000846575236 160.7216107914888710 0.1072353877602789 8.0000000000000018 121
3.7725579191233938  -12.6776021020498497 160.7216555271718050 0.1072361294207461 7.9999999999999991 122
3.8034804177575090  -12.6776039259954842 160.7216959813144967 0.1072368114298224 8.0000000000000000 123
3.8344029250021778  -12.6776055752824028 160.7217325688955896 0.1072374385375611 8.0000000000000000 124
3.8653254400956318  -12.6776070668488803 160.7217656641303165 0.1072380151214861 8.0000000000000000 125
3.8962479623440078  -12.6776084159682654 160.7217956045324172 0.1072385452150992 8.0000000000000000 126
3.9271704911152443  -12.6776096364150082 160.7218226945652475 0.1072390325342977 7.9999999999999991 127
3.9580930258335356  -12.6776107406138863 160.7218472089236911 0.1072394805018426 7.9999999999999982 128
3.9890155659742823  -12.6776117397741288 160.7218693954858111 0.1072398922700101 8.0000000000000000 129
4.0199381110595080  -12.6776126440099723 160.7218894779662719 0.1072402707415528 7.9999999999999991 130
4.0508606606536777  -12.6776134624491625 160.7219076583048434 0.1072406185890893 8.0000000000000000 131
4.0817832143599029  -12.6776142033304744 160.7219241188141439 0.1072409382730317 8.0000000000000000 132
4.1127057718164908  -12.6776148740914500 160.7219390241128281 0.1072412320581567 8.0000000000000000 133
4.1436283326937904  -12.6776154814474022 160.7219525228659052 0.1072415020289171 8.0000000000000000 134
4.1745508966913425  -12.6776160314624615 160.7219647493510593 0.1072417501035846 7.9999999999999982 135
4.2054734635352693  -12.6776165296135730 160.7219758248693893 0.1072419780473111 7.9999999999999991 136
4.2363960329759074  -12.6776169808480859 160.7219858590154615 0.1072421874841844 8.0000000000000018 137
4.2673186047856486  -12.6776173896356390 160.7219949508217951 0.1072423799083571 8.0000000000000000 138
4.2982411787569852  -12.6776177600148738 160.7220031897898025 0.1072425566943137 8.0000000000000000 139
4.3291637547007094  -12.6776180956355287 160.7220106568182985 0.1072427191063420 7.9999999999999982 140
4.3600863324442969  -12.6776183997963798 160.7220174250414857 0.1072428683072695 7.9999999999999991 141
4.3910089118304247  -12.6776186754794011 160.7220235605828123 0.1072430053665176 7.9999999999999991 142
4.4219314927156184  -12.6776189253805605 160.7220291232355578 0.1072431312675278 8.0000000000000000 143
4.4528540749690251  -12.6776191519376056 160.7220341670763730 0.1072432469146064 7.9999999999999973 144
4.4837766584712941  -12.6776193573551161 160.7220387410185651 0.1072433531392329 7.9999999999999982 145
4.5146992431135642  -12.6776195436270367 160.7220428893108704 0.1072434507058710 8.0000000000000000 146
4.5456218287965262  -12.6776197125570889 160.7220466519877959 0.1072435403173242 8.0000000000000018 147
4.5765444154295887  -12.6776198657771069 160.7220500652755959 0.1072436226196674 8.0000000000000000 148
4.6074670029300968  -12.6776200047636465 160.7220531619592805 0.1072436982067896 8.0000000000000000 149
4.6383895912226407  -12.6776201308529046 160.7220559717129049 0.1072437676245767 8.0000000000000000 150
4.6693121802384105  -12.6776202452542357 160.7220585213983952 0.1072438313747631 7.9999999999999982 151
4.7002347699146174  -12.6776203490623374 160.7220608353352418 0.1072438899184776 7.9999999999999982 152
4.7311573601939614  -12.6776204432682515 160.7220629355439314 0.1072439436795068 7.9999999999999991 153
4.7620799510241483  -12.6776205287692605 160.7220648419655049 0.1072439930472995 7.9999999999999991 154
4.7930025423574509  -12.6776206063779107 160.7220665726605944 0.1072440383797317 8.0000000000000000 155
4.8239251341503051  -12.6776206768300614 160.7220681439883947 0.1072440800056502 7.9999999999999982 156
4.8548477263629435  -12.6776207407922445 160.7220695707691220 0.1072441182272137 8.0000000000000000 157
4.8857703189590662  -12.6776207988682330 160.7220708664300162 0.1072441533220466 8.0000000000000018 158
4.9166929119055327  -12.6776208516050346 160.7220720431379561 0.1072441855452200 7.9999999999999982 159
4.9476155051720863  -12.6776208994983026 160.7220731119193147 0.1072442151310744 8.0000000000000000 160
4.9785380987311010  -12.6776209429971818 160.7220740827675058 0.1072442422948961 8.0000000000000000 161
5.0094606925573490  -12.6776209825087420 160.7220749647412106 0.1072442672344586 8.0000000000000000 162
5.0403832866277973  -12.6776210184019575 160.7220757660526829 0.1072442901314408 8.0000000000000000 163
5.0713058809214102  -12.6776210510113003 160.7220764941475863 0.1072443111527304 8.0000000000000018 164
5.1022284754189737  -12.6776210806400194 160.7220771557774697 0.1072443304516231 8.0000000000000000 165
5.1331510701029410  -12.6776211075630805 160.7220777570651080 0.1072443481689248 8.0000000000000018 166
5.1640736649572858  -12.6776211320298131 160.7220783035635918 0.1072443644339648 8.0000000000000000 167
5.1949962599673656  -12.6776211542663724 160.7220788003100722 0.1072443793655277 8.0000000000000018 168
5.2259188551198079  -12.6776211744778600 160.7220792518740495 0.1072443930727096 8.0000000000000018 169
5.2568414504023941  -12.6776211928503368 160.7220796624011427 0.1072444056557055 8.0000000000000018 170
5.2877640458039608  -12.6776212095526155 160.7220800356533346 0.1072444172065330 8.0000000000000018 171
5.3186866413143088  -12.6776212247378517 160.7220803750441007 0.1072444278096971 8.0000000000000000 172
5.3496092369241177  -12.6776212385450258 160.7220806836715497 0.1072444375428016 8.0000000000000000 173
5.3805318326248726  -12.6776212511002715 160.7220809643477253 0.1072444464771108 8.0000000000000000 174
5.4114544284087911  -12.6776212625180662 160.7220812196251813 0.1072444546780657 8.0000000000000018 175
5.4423770242687608  -12.6776212729023143 160.7220814518211682 0.1072444622057584 8.0000000000000000 176
5.4732996201982811  -12.6776212823473511 160.7220816630397735 0.1072444691153680 7.9999999999999973 177
5.5042222161914092  -12.6776212909388342 160.7220818551916182 0.1072444754575611 8.0000000000000018 178
5.5351448122427165  -12.6776212987545041 160.7220820300112791 0.1072444812788594 7.9999999999999982 179
5.5660674083472363  -12.6776213058649994 160.7220821890748539 0.1072444866219786 8.0000000000000000 180
5.5969900045004328  -12.6776213123344377 160.7220823338132050 0.1072444915261384 8.0000000000000000 181
5.6279126006981555  -12.6776213182210675 160.7220824655266256 0.1072444960273479 8.0000000000000018 182
5.6588351969366109  -12.6776213235778101 160.7220825853960946 0.1072445001586680 8.0000000000000018 183
5.6897577932123324  -12.6776213284527195 160.7220826944946452 0.1072445039504518 8.0000000000000018 184
5.7206803895221467  -12.6776213328894585 160.7220827937972558 0.1072445074305663 7.9999999999999973 185
5.7516029858631548  -12.6776213369277269 160.7220828841901721 0.1072445106245955 8.0000000000000000 186
5.7825255822327044  -12.6776213406035616 160.7220829664785242 0.1072445135560265 8.0000000000000000 187
5.8134481786283700  -12.6776213439497312 160.7220830413941712 0.1072445162464216 8.0000000000000000 188
5.8443707750479348  -12.6776213469960197 160.7220831096024369 0.1072445187155753 8.0000000000000036 189
5.8752933714893700  -12.6776213497694830 160.7220831717079363 0.1072445209816591 7.9999999999999982 190
5.9062159679508177  -12.6776213522947430 160.7220832282606011 0.1072445230613545 8.0000000000000018 191
5.9371385644305841  -12.6776213545941498 160.7220832797601702 0.1072445249699744 7.9999999999999982 192
5.9680611609271130  -12.6776213566880571 160.7220833266613340 0.1072445267215757 7.9999999999999982 193
