 # inv_tmp, energy, phys_var, phys_doublon, phys_num, step_i
0.0407864154526053  -1.0359345827790079 14.0863996518382244 0.8798389738914866 7.9999999999999982 1
0.0806971816630240  -1.5680260148766503 15.7419002270072959 0.8716348898975341 7.9999999999999991 2
0.1197479126686402  -2.1052575054303162 17.9896841595609196 0.8600650900221000 8.0000000000000018 3
0.1579534098739834  -2.6478461362908794 20.8658608172842577 0.8450704146155348 8.0000000000000000 4
0.1953253967271372  -3.1966194235850143 24.4003604663474754 0.8265989450479793 8.0000000000000036 5
0.2318727820177157  -3.7525165980160837 28.6138723224401090 0.8046141922100307 8.0000000000000000 6
0.2676043826420594  -4.3160340715571532 33.5130530161894171 0.7791161271622212 8.0000000000000018 7
0.3025335322815189  -4.8866994654707954 39.0845524893737490 0.7501727540285104 8.0000000000000000 8
0.3366835709094773  -5.4626621411223741 45.2890091153509076 0.7179564481841916 8.0000000000000000 9
0.3700929240473384  -6.0404819991689678 52.0566109340197727 0.6827763701552149 8.0000000000000000 10
0.4028184450343201  -6.6151753257614665 59.2858868413726796 0.6450970799704578 8.0000000000000000 11
0.4349359958841429  -7.1805328303823766 66.8469184112515222 0.6055351017108302 8.0000000000000000 12
0.4665378702892041  -7.7296666696805323 74.5891731863009966 0.5648298802845487 8.0000000000000000 13
0.4977274538486589  -8.2556872912897461 82.3529325079772150 0.5237921948883033 7.9999999999999982 14
0.5286122028560652  -8.7523788476911832 89.9822748794678375 0.4832393169358425 7.9999999999999982 15
0.5592963580180057  -9.2147476758105480 97.3371862508198831 0.4439295868199409 8.0000000000000000 16
0.5898747011786450  -9.6393595657919526 104.3027360380978905 0.4065084145603900 7.9999999999999991 17
0.6204282115326920  -10.0244407504720101 110.7941787556998605 0.3714736070337585 7.9999999999999982 18
0.6510219000560973  -10.3697721946460106 116.7579114383709964 0.3391623524725036 7.9999999999999982 19
0.6817046076793295  -10.6764407184640966 122.1690584998645619 0.3097572834237949 8.0000000000000000 20
0.7125102609481866  -10.9465195127263186 127.0268772308214125 0.2833061043687305 8.0000000000000000 21
0.7434599974016816  -11.1827403677072112 131.3491950927589187 0.2597485126481952 8.0000000000000000 22
0.7745646414783515  -11.3882002052189861 135.1668456742951037 0.2389449807841888 7.9999999999999982 23
0.8058271520490162  -11.5661239236578766 138.5187274057866489 0.2207035719780397 7.9999999999999991 24
0.8372448121436457  -11.7196892411696787 141.4477883787800181 0.2048026388515582 8.0000000000000000 25
0.8688110548325850  -11.8519087789693351 143.9980012887992871 0.1910086136916572 8.0000000000000000 26
0.9005169047719056  -11.9655594624043289 146.2122455663071605 0.1790890083476332 7.9999999999999991 27
0.9323520651971732  -12.0631479141488871 148.1309435051168180 0.1688212410691052 8.0000000000000000 28
0.9643057037343993  -12.1469013149952936 149.7912794006645356 0.1599981026994325 8.0000000000000000 29
0.9963669966128716  -12.2187750135930990 151.2268430087784168 0.1524306790438515 8.0000000000000000 30
1.0285254873238421  -12.2804702111175317 152.4675645660846612 0.1459494507419469 7.9999999999999982 31
1.0607713077562704  -12.3334569214282084 153.5398378595143640 0.1404041580947199 8.0000000000000018 32
1.0930953005849511  -12.3789989442651951 154.4667548884494863 0.1356628821263650 8.0000000000000000 33
1.1254890729147140  -12.4181787601884821 155.2683982114953665 0.1316106726150498 8.0000000000000000 34
1.1579450036579575  -12.4519211006303792 155.9621546380502650 0.1281479554403318 8.0000000000000000 35
1.1904562210448473  -12.4810145280324321 156.5630269563542356 0.1251888756228032 7.9999999999999991 36
1.2230165619553461  -12.5061307442064198 157.0839296799833846 0.1226596761846095 7.9999999999999982 37
1.2556205212199136  -12.5278415855781535 157.5359611871206198 0.1204971727554045 7.9999999999999991 38
1.2882631964328914  -12.5466338058685611 157.9286488720666171 0.1186473560306589 8.0000000000000000 39
1.3209402319462700  -12.5629218228353956 158.2701666365995834 0.1170641355777376 8.0000000000000018 40
1.3536477643816403  -12.5770586393709412 158.5675256885693329 0.1157082265113468 8.0000000000000000 41
1.3863823710706988  -12.5893451567240167 158.8267405323938988 0.1145461732470885 8.0000000000000000 42
1.4191410221988741  -12.6000380897651389 159.0529724785783969 0.1135495004201538 8.0000000000000000 43
1.4519210369993389  -12.6093566781483730 159.2506531400028962 0.1126939790615762 7.9999999999999982 44
1.4847200440646064  -12.6174883674458655 159.4235903397075731 0.1119589955035971 7.9999999999999982 45
1.5175359456656439  -12.6245936135935182 159.5750587072386395 0.1113270107158520 8.0000000000000018 46
1.5503668858620572  -12.6308099438880745 159.7078770398889276 0.1107830984998061 7.9999999999999991 47
1.5832112221287094  -12.6362553891722929 159.8244742840880690 0.1103145519535908 7.9999999999999991 48
1.6160675001981581  -12.6410313851268477 159.9269457707726758 0.1099105487097596 7.9999999999999982 49
1.6489344318133117  -12.6452252258637774 160.0171011283610198 0.1095618665484207 8.0000000000000000 50
1.6818108750929917  -12.6489121402310829 160.0965051040211051 0.1092606420404063 8.0000000000000000 51
1.7146958172293112  -12.6521570502506044 160.1665123508520878 0.1090001658481514 8.0000000000000000 52
1.7475883592563193  -12.6550160617389107 160.2282970858291264 0.1087747091911003 7.9999999999999982 53
1.7804877026518391  -12.6575377292109170 160.2828783900940550 0.1085793767637096 8.0000000000000000 54
1.8133931375572652  -12.6597641304497923 160.3311418079201189 0.1084099820798877 8.0000000000000000 55
1.8463040324222766  -12.6617317804698235 160.3738578016625524 0.1082629418141012 8.0000000000000000 56
1.8792198249024126  -12.6634724098443350 160.4116975353481109 0.1081351862243483 8.0000000000000000 57
1.9121400138568854  -12.6650136283806951 160.4452463874529258 0.1080240831843882 8.0000000000000000 58
1.9450641523117611  -12.6663794917786241 160.4750155321676175 0.1079273737306757 8.0000000000000000 59
1.9779918412696633  -12.6675909861046740 160.5014518765345883 0.1078431173515666 7.9999999999999991 60
2.0109227242615320  -12.6686664425664866 160.5249465968928746 0.1077696455200824 7.9999999999999991 61
2.0438564825487640  -12.6696218931025193 160.5458424809096982 0.1077055222036292 8.0000000000000000 62
2.0767928308953834  -12.6704713756531397 160.5644402500719821 0.1076495102805715 8.0000000000000000 63
2.1097315138399209  -12.6712271965958827 160.5810040109825252 0.1076005429597050 8.0000000000000000 64
2.1426723024054635  -12.6719001566669576 160.5957659613893895 0.1075576994390336 8.0000000000000000 65
2.1756149911940725  -12.6724997457167827 160.6089304579438419 0.1075201841587366 8.0000000000000000 66
2.2085593958185421  -12.6730343108280188 160.6206775366702573 0.1074873091031949 8.0000000000000000 67
2.2415053506303830  -12.6735112016361882 160.6311659635994147 0.1074584786912832 8.0000000000000000 68
2.2744527067081064  -12.6739368961125400 160.6405358815595719 0.1074331768652764 8.0000000000000000 69
2.3074013300743785  -12.6743171095802118 160.6489111094221016 0.1074109560487217 7.9999999999999991 70
2.3403511001145874  -12.6746568893220548 160.6564011418778648 0.1073914276942529 8.0000000000000000 71
2.3733019081727700  -12.6749606967901940 160.6631028908473411 0.1073742541850339 8.0000000000000000 72
2.4062536563038739  -12.6752324791324433 160.6691022037103380 0.1073591418895724 8.0000000000000000 73
2.4392062561639185  -12.6754757315013062 160.6744751885060509 0.1073458352000860 8.0000000000000000 74
2.4721596280219198  -12.6756935513995881 160.6792893719773474 0.1073341114103187 8.0000000000000000 75
2.5051136998794110  -12.6758886861370179 160.6836047126843710 0.1073237763104388 8.0000000000000000 76
2.5380684066851407  -12.6760635743197430 160.6874744883077142 0.1073146603950270 8.0000000000000018 77
2.5710236896340350  -12.6762203821643400 160.6909460736032429 0.1073066155957140 8.0000000000000036 78
2.6039794955408353  -12.6763610353176315 160.6940616232074035 0.1072995124631911 8.0000000000000000 79
2.6369357762799708  -12.6764872467687901 160.6968586715487390 0.1072932377344717 8.0000000000000000 80
2.6698924882842432  -12.6766005413597398 160.6993706604596355 0.1072876922307350 8.0000000000000000 81
2.7028495920957765  -12.6767022773306515 160.7016274036572554 0.1072827890391073 8.0000000000000000 82
2.7358070519634556  -12.6767936652783391 160.7036554960386638 0.1072784519385436 8.0000000000000000 83
2.7687648354817629  -12.6768757848544844 160.7054786746806769 0.1072746140357610 8.0000000000000000 84
2.8017229132665000  -12.6769495994872443 160.7071181375325182 0.1072712165820947 8.0000000000000000 85
2.8346812586634180  -12.6770159693720892 160.7085928250039046 0.1072682079463314 8.0000000000000000 86
2.8676398474862261  -12.6770756629457644 160.7099196689821383 0.1072655427221463 8.0000000000000000 87
2.9005986577808485  -12.6771293670292629 160.7111138132266888 0.1072631809518026 8.0000000000000000 88
2.9335576696131636  -12.6771776958017455 160.7121888085870296 0.1072610874503701 8.0000000000000000 89
2.9665168648777547  -12.6772211987466665 160.7131567860538439 0.1072592312169304 7.9999999999999982 90
2.9994762271254909  -12.6772603676933748 160.7140286102761593 0.1072575849211292 8.0000000000000036 91
3.0324357414079852  -12.6772956430619281 160.7148140158476224 0.1072561244550524 8.0000000000000000 92
3.0653953941371976  -12.6773274194054046 160.7155217283811623 0.1072548285417910 8.0000000000000000 93
3.0983551729586405  -12.6773560503321967 160.7161595721431127 0.1072536783932420 8.0000000000000018 94
3.1313150666368030  -12.6773818528807389 160.7167345658008912 0.1072526574107133 8.0000000000000000 95
3.1642750649515676  -12.6774051114101720 160.7172530076522889 0.1072517509227748 8.0000000000000000 96
3.1972351586045118  -12.6774260810626842 160.7177205515367291 0.1072509459555431 8.0000000000000000 97
3.2301953391341223  -12.6774449908466629 160.7181422744880592 0.1072502310312405 8.0000000000000000 98
3.2631555988390279  -12.6774620463838197 160.7185227370621021 0.1072495959914163 7.9999999999999991 99
3.2961159307084706  -12.6774774323583266 160.7188660371610922 0.1072490318417037 8.0000000000000000 100
3.3290763283593034  -12.6774913147015020 160.7191758580815986 0.1072485306153920 8.0000000000000000 101
3.3620367859788787  -12.6775038425417108 160.7194555114288050 0.1072480852534566 8.0000000000000018 102
3.3949972982732626  -12.6775151499455170 160.7197079754632227 0.1072476894989899 8.0000000000000000 103
3.4279578604202534  -12.6775253574733391 160.7199359293837801 0.1072473378042480 7.9999999999999982 104
3.4609184680267511  -12.6775345735699680 160.7201417839912381 0.1072470252487547 8.0000000000000000 105
3.4938791170900600  -12.6775428958080276 160.7203277091263089 0.1072467474671049 8.0000000000000000 106
3.5268398039627487  -12.6775504120005991 160.7204956582328350 0.1072465005852831 7.9999999999999982 107
3.5598005253207359  -12.6775572011969775 160.7206473903561346 0.1072462811644607 8.0000000000000000 108
3.5927612781342924  -12.6775633345744012 160.7207844898514395 0.1072460861513689 8.0000000000000000 109
3.6257220596416890  -12.6775688762368688 160.7209083840493804 0.1072459128344540 8.0000000000000000 110
3.6586828673252447  -12.6775738839309824 160.7210203590944388 0.1072457588051234 8.0000000000000036 111
3.6916436988895449  -12.6775784096877313 160.7211215741510841 0.1072456219234746 8.0000000000000000 112
3.7246045522416344  -12.6775825003980707 160.7212130741510805 0.1072455002879754 8.0000000000000000 113
3.7575654254730035  -12.6775861983292835 160.7212958012339072 0.1072453922086270 8.0000000000000000 114
3.7905263168431897  -12.6775895415884143 160.7213706050194446 0.1072452961832013 8.0000000000000000 115
3.8234872247648695  -12.6775925645382923 160.7214382518334901 0.1072452108761915 8.0000000000000018 116
3.8564481477902750  -12.6775952981711448 160.7214994329962678 0.1072451351001579 8.0000000000000000 117
3.8894090845988361  -12.6775977704442635 160.7215547722712472 0.1072450677991930 8.0000000000000000 118
3.9223700339859313  -12.6776000065815388 160.7216048325606437 0.1072450080342567 8.0000000000000000 119
3.9553309948526385  -12.6776020293445875 160.7216501219261602 0.1072449549701692 7.9999999999999982 120
3.9882919661964014  -12.6776038592764433 160.7216910990038627 0.1072449078640676 8.0000000000000000 121
4.0212529471025329  -12.6776055149207529 160.7217281778753488 0.1072448660551608 7.9999999999999991 122
4.0542139367364696  -12.6776070130189584 160.7217617324520234 0.1072448289556327 7.9999999999999991 123
4.0871749343367130  -12.6776083686877179 160.7217921004202879 0.1072447960425631 8.0000000000000000 124
4.1201359392084056  -12.6776095955785539 160.7218195867938562 0.1072447668507517 7.9999999999999982 125
4.1530969507174680  -12.6776107060216248 160.7218444671124473 0.1072447409663407 8.0000000000000000 126
4.1860579682852608  -12.6776117111551372 160.7218669903229511 0.1072447180211482 8.0000000000000018 127
4.2190189913837131  -12.6776126210419307 160.7218873813748701 0.1072446976876301 8.0000000000000018 128
4.2519800195308921  -12.6776134447744599 160.7219058435590568 0.1072446796744012 7.9999999999999982 129
4.2849410522869471  -12.6776141905694395 160.7219225606153827 0.1072446637222527 7.9999999999999982 130
4.3179020892504303  -12.6776148658530836 160.7219376986328143 0.1072446496006092 7.9999999999999982 131
4.3508631300549281  -12.6776154773379641 160.7219514077622762 0.1072446371043778 8.0000000000000000 132
4.3838241743659951  -12.6776160310922883 160.7219638237613140 0.1072446260511448 8.0000000000000000 133
4.4167852218783539  -12.6776165326024071 160.7219750693875255 0.1072446162786809 8.0000000000000000 134
4.4497462723133490  -12.6776169868291166 160.7219852556549711 0.1072446076427217 8.0000000000000018 135
4.4827073254166141  -12.6776173982585121 160.7219944829682845 0.1072446000149918 8.0000000000000000 136
4.5156683809559510  -12.6776177709478226 160.7220028421456846 0.1072445932814467 8.0000000000000000 137
4.5486294387193951  -12.6776181085668043 160.7220104153424813 0.1072445873407074 8.0000000000000000 138
4.5815904985134441  -12.6776184144350470 160.7220172768845146 0.1072445821026668 8.0000000000000018 139
4.6145515601614511  -12.6776186915557041 160.7220234940204477 0.1072445774872495 8.0000000000000000 140
4.6475126235021493  -12.6776189426459052 160.7220291276016155 0.1072445734233074 8.0000000000000000 141
4.6804736883883145  -12.6776191701642169 160.7220342326953073 0.1072445698476359 8.0000000000000000 142
4.7134347546855349  -12.6776193763354641 160.7220388591387632 0.1072445667040990 7.9999999999999991 143
4.7463958222710989  -12.6776195631731206 160.7220430520399646 0.1072445639428492 8.0000000000000000 144
4.7793568910329745  -12.6776197324995294 160.7220468522297665 0.1072445615196338 8.0000000000000018 145
4.8123179608688753  -12.6776198859642122 160.7220502966703179 0.1072445593951765 8.0000000000000000 146
4.8452790316854149  -12.6776200250603601 160.7220534188244869 0.1072445575346273 8.0000000000000000 147
4.8782401033973306  -12.6776201511397666 160.7220562489893325 0.1072445559070726 7.9999999999999982 148
4.9112011759267746  -12.6776202654263130 160.7220588145976876 0.1072445544850989 8.0000000000000018 149
4.9441622492026713  -12.6776203690281406 160.7220611404906663 0.1072445532444039 7.9999999999999982 150
4.9771233231601242  -12.6776204629487026 160.7220632491647052 0.1072445521634520 8.0000000000000000 151
5.0100843977398810  -12.6776205480966802 160.7220651609932816 0.1072445512231649 8.0000000000000000 152
5.0430454728878411  -12.6776206252950274 160.7220668944295596 0.1072445504066490 8.0000000000000000 153
5.0760065485546075  -12.6776206952890860 160.7220684661879204 0.1072445496989509 7.9999999999999991 154
5.1089676246950777  -12.6776207587539673 160.7220698914089780 0.1072445490868403 8.0000000000000000 155
5.1419287012680694  -12.6776208163011965 160.7220711838084526 0.1072445485586171 8.0000000000000000 156
5.1748897782359817  -12.6776208684847447 160.7220723558123723 0.1072445481039396 8.0000000000000000 157
5.2078508555644811  -12.6776209158064788 160.7220734186788320 0.1072445477136717 7.9999999999999991 158
5.2408119332222167  -12.6776209587210893 160.7220743826083549 0.1072445473797463 7.9999999999999991 159
5.2737730111805670  -12.6776209976405454 160.7220752568438797 0.1072445470950454 8.0000000000000000 160
5.3067340894133945  -12.6776210329381325 160.7220760497610286 0.1072445468532917 8.0000000000000000 161
5.3396951678968358  -12.6776210649521062 160.7220767689499894 0.1072445466489532 8.0000000000000000 162
5.3726562466090995  -12.6776210939889928 160.7220774212895833 0.1072445464771585 8.0000000000000000 163
5.4056173255302884  -12.6776211203265969 160.7220780130141975 0.1072445463336211 7.9999999999999991 164
5.4385784046422367  -12.6776211442166815 160.7220785497744373 0.1072445462145719 8.0000000000000000 165
5.4715394839283560  -12.6776211658874338 160.7220790366921506 0.1072445461167004 8.0000000000000000 166
5.5045005633734991  -12.6776211855456893 160.7220794784099667 0.1072445460371009 8.0000000000000000 167
5.5374616429638372  -12.6776212033789228 160.7220798791366576 0.1072445459732261 8.0000000000000000 168
5.5704227226867413  -12.6776212195570874 160.7220802426874116 0.1072445459228450 7.9999999999999982 169
5.6033838025306828  -12.6776212342342554 160.7220805725212642 0.1072445458840064 8.0000000000000000 170
5.6363448824851305  -12.6776212475500927 160.7220808717741534 0.1072445458550052 8.0000000000000000 171
5.6693059625404754  -12.6776212596312234 160.7220811432893584 0.1072445458343542 8.0000000000000018 172
5.7022670426879385  -12.6776212705924625 160.7220813896448703 0.1072445458207575 8.0000000000000000 173
5.7352281229195050  -12.6776212805379096 160.7220816131784318 0.1072445458130883 8.0000000000000000 174
5.7681892032278572  -12.6776212895619498 160.7220818160096769 0.1072445458103681 8.0000000000000000 175
5.8011502836063142  -12.6776212977501768 160.7220820000609933 0.1072445458117492 8.0000000000000000 176
5.8341113640487778  -12.6776213051801978 160.7220821670753992 0.1072445458164985 7.9999999999999982 177
5.8670724445496738  -12.6776213119224099 160.7220823186340226 0.1072445458239838 8.0000000000000000 178
5.9000335251039191  -12.6776213180406341 160.7220824561704262 0.1072445458336607 8.0000000000000036 179
5.9329946057068703  -12.6776213235927564 160.7220825809851021 0.1072445458450625 8.0000000000000000 180
5.9659556863542864  -12.6776213286312860 160.7220826942574377 0.1072445458577900 8.0000000000000000 181
5.9989167670422976  -12.6776213332038505 160.7220827970572827 0.1072445458715031 8.0000000000000000 182
6.0318778477673689  -12.6776213373536244 160.7220828903549545 0.1072445458859134 8.0000000000000000 183
6.0648389285262736  -12.6776213411197993 160.7220829750307303 0.1072445459007770 8.0000000000000018 184
6.0978000093160665  -12.6776213445379042 160.7220830518829757 0.1072445459158893 7.9999999999999991 185
6.1307610901340563  -12.6776213476401818 160.7220831216361603 0.1072445459310796 8.0000000000000000 186
6.1637221709777874  -12.6776213504558726 160.7220831849472518 0.1072445459462066 7.9999999999999982 187
6.1966832518450179  -12.6776213530115065 160.7220832424125092 0.1072445459611542 8.0000000000000018 188
6.2296443327337006  -12.6776213553311443 160.7220832945726272 0.1072445459758282 8.0000000000000000 189
6.2626054136419649  -12.6776213574366317 160.7220833419184487 0.1072445459901536 8.0000000000000000 190
6.2955664945681082  -12.6776213593477678 160.7220833848950292 0.1072445460040711 8.0000000000000000 191
6.3285275755105701  -12.6776213610825295 160.7220834239063265 0.1072445460175354 7.9999999999999991 192
6.3614886564679294  -12.6776213626572236 160.7220834593189238 0.1072445460305131 8.0000000000000000 193
