 # inv_tmp, energy, phys_var, phys_doublon, phys_num, step_i
0.0408439936072772  -0.9668081733237056 13.7355766197383211 0.8874195481594392 8.0000000000000000 1
0.0808196595618570  -1.4929083057881094 15.4752548278785742 0.8826595749682622 8.0000000000000018 2
0.1199260059608261  -2.0308498722112311 17.7641716687536722 0.8748254638177051 8.0000000000000000 3
0.1581712331502479  -2.5780971714417045 20.6188176887451853 0.8638641987727333 7.9999999999999982 4
0.1955728224246269  -3.1318488736029044 24.0408813044253726 0.8497788487211124 8.0000000000000018 5
0.2321578844676795  -3.6889617060178344 28.0159389627891215 0.8326269952923466 8.0000000000000000 6
0.2679634547040571  -4.2459303842824792 32.5130245350583351 0.8125208021290682 8.0000000000000000 7
0.3030363573679557  -4.7989451132833079 37.4853147303305292 0.7896283017539957 8.0000000000000000 8
0.3374323448722759  -5.3440266575906330 42.8720183107753741 0.7641745336999382 8.0000000000000000 9
0.3712144204383500  -5.8772173138719275 48.6013419768610504 0.7364407895394909 8.0000000000000000 10
0.4044504895094594  -6.3947913789963566 54.5941954584501943 0.7067604976015966 8.0000000000000000 11
0.4372106685389877  -6.8934454875037776 60.7681675816114790 0.6755110506147124 8.0000000000000000 12
0.4695646478213996  -7.3704375332130692 67.0412970575637814 0.6431018243621409 7.9999999999999973 13
0.5015794504509046  -7.8236585945234829 73.3352687624593500 0.6099594314870698 8.0000000000000000 14
0.5333177919922050  -8.2516391735876695 79.5778382351524129 0.5765117017949806 8.0000000000000000 15
0.5648370860289748  -8.6535038004896201 85.7044596792252662 0.5431719454863373 8.0000000000000000 16
0.5961890123676992  -9.0288940162998621 91.6592167344902293 0.5103248314601598 8.0000000000000000 17
0.6274194946448486  -9.3778792454924158 97.3952119418481175 0.4783148384602209 8.0000000000000000 18
0.6585689225765234  -9.7008703224749109 102.8745695949827308 0.4474378316078301 8.0000000000000000 19
0.6896724835503090  -9.9985441699620132 108.0681720773146282 0.4179359516351557 7.9999999999999991 20
0.7207605157414454  -10.2717824890763598 112.9552071806685944 0.3899957066704994 8.0000000000000000 21
0.7518588413382176  -10.5216234495365324 117.5225704407574767 0.3637489308003578 8.0000000000000000 22
0.7829890726543719  -10.7492234649683098 121.7641487560690337 0.3392761168346167 8.0000000000000000 23
0.8141689025920356  -10.9558258086060558 125.6800077733540775 0.3166115398398684 8.0000000000000000 24
0.8454123962101456  -11.1427334448162139 129.2755099013162976 0.2957495599099806 8.0000000000000000 25
0.8767302966678652  -11.3112844367682897 132.5603961189276561 0.2766515208696282 8.0000000000000018 26
0.9081303513696048  -11.4628292277198121 135.5478685408180013 0.2592527347515830 8.0000000000000000 27
0.9396176564430764  -11.5987097688096412 138.2537100248890169 0.2434691444793951 8.0000000000000000 28
0.9711950118980586  -11.7202408264509970 140.6954720768264906 0.2292033723985763 7.9999999999999982 29
1.0028632767252124  -11.8286938932755330 142.8917542834226992 0.2163499750049218 7.9999999999999991 30
1.0346217126345738  -11.9252840365416404 144.8615892523378648 0.2047998231847530 8.0000000000000018 31
1.0664683064442295  -12.0111598378257582 146.6239381153049521 0.1944436060268119 8.0000000000000000 32
1.0984000635227271  -12.0873963793560808 148.1972941389656739 0.1851745127231859 8.0000000000000000 33
1.1304132674677221  -12.1549910612153020 149.5993864128145674 0.1768901825289325 7.9999999999999991 34
1.1625037038632386  -12.2148619117303596 150.8469720266895138 0.1694940305220723 8.0000000000000000 35
1.1946668481986289  -12.2678479850384701 151.9557033899120029 0.1628960611851649 7.9999999999999982 36
1.2268980197251464  -12.3147114187841815 152.9400570063039595 0.1570132767947502 8.0000000000000018 37
1.2591925041634966  -12.3561407399642373 153.8133106902577936 0.1517697768953062 8.0000000000000000 38
1.2915456488223305  -12.3927550459580846 154.5875575087037532 0.1470966316157709 8.0000000000000036 39
1.3239529339412746  -12.4251087399670972 155.2737463522603889 0.1429315973210007 8.0000000000000000 40
1.3564100240370189  -12.4536965569948315 155.8817407468915235 0.1392187294263000 8.0000000000000000 41
1.3889128028024578  -12.4789586722148957 156.4203891611851986 0.1359079349191175 8.0000000000000018 42
1.4214573947654567  -12.5012857344135622 156.8976015523102205 0.1329544965890785 8.0000000000000018 43
1.4540401765155302  -12.5210237112455083 157.3204281810614589 0.1303185922442339 7.9999999999999991 44
1.4866577798963756  -12.5384784696537714 157.6951378009531481 0.1279648251924417 8.0000000000000000 45
1.5193070891679654  -12.5539200441583922 158.0272931965024554 0.1258617768031367 7.9999999999999982 46
1.5519852337806210  -12.5675865684732706 158.3218227317174183 0.1239815878086770 8.0000000000000000 47
1.5846895780836954  -12.5796878629624960 158.5830870967206465 0.1222995719245376 8.0000000000000018 48
1.6174177090158814  -12.5904086827565038 158.8149408348838563 0.1207938631488751 8.0000000000000000 49
1.6501674225917844  -12.5999116398371811 159.0207885199202735 0.1194450965558218 8.0000000000000000 50
1.6829367098069952  -12.6083398178994539 159.2036356545037279 0.1182361213644651 8.0000000000000000 51
1.7157237424271690  -12.6158191020164860 159.3661344983386812 0.1171517444171613 8.0000000000000000 52
1.7485268590007708  -12.6224602466648541 159.5106251201050611 0.1161785018333887 7.9999999999999991 53
1.7813445513354889  -12.6283607059799330 159.6391720172072723 0.1153044564383249 8.0000000000000000 54
1.8141754516004689  -12.6336062495817583 159.7535966699457504 0.1145190185372497 8.0000000000000000 55
1.8470183201565611  -12.6382723862243012 159.8555064005014401 0.1138127876715656 8.0000000000000000 56
1.8798720341712640  -12.6424256160907014 159.9463198980079142 0.1131774131156739 7.9999999999999982 57
1.9127355770411449  -12.6461245309417478 160.0272897535040215 0.1126054710315309 8.0000000000000018 58
1.9456080286197452  -12.6494207796375360 160.0995223260352986 0.1120903563720222 7.9999999999999982 59
1.9784885562313783  -12.6523599148714805 160.1639952360178540 0.1116261878033260 8.0000000000000018 60
2.0113764064391741  -12.6549821353337961 160.2215727558770482 0.1112077240921739 7.9999999999999982 61
2.0442708975278929  -12.6573229359921804 160.2730193421044760 0.1108302905712886 8.0000000000000018 62
2.0771714126574241  -12.6594136777581614 160.3190115279855945 0.1104897144522760 8.0000000000000018 63
2.1100773936406187  -12.6612820865093418 160.3601483728319579 0.1101822678983593 7.9999999999999991 64
2.1429883352986323  -12.6629526902600098 160.3969606418519334 0.1099046178990546 8.0000000000000018 65
2.1759037803476540  -12.6644472022148715 160.4299188709475459 0.1096537821053514 8.0000000000000000 66
2.2088233147725100  -12.6657848564953461 160.4594404527372831 0.1094270898877783 8.0000000000000000 67
2.2417465636447838  -12.6669827024879922 160.4858958639259185 0.1092221479717251 8.0000000000000000 68
2.2746731873455825  -12.6680558630219480 160.5096141396854819 0.1090368100855413 7.9999999999999991 69
2.3076028781557869  -12.6690177609271331 160.5308876878486330 0.1088691501282499 8.0000000000000000 70
2.3405353571793537  -12.6698803179492465 160.5499765243214370 0.1087174384262086 8.0000000000000000 71
2.3734703715679859  -12.6706541294927817 160.5671120010625259 0.1085801207026975 8.0000000000000000 72
2.4064076920181217  -12.6713486182209731 160.5825000891122158 0.1084557994321061 8.0000000000000000 73
2.4393471105137445  -12.6719721691555840 160.5963242713696673 0.1083432172919695 7.9999999999999991 74
2.4722884382908887  -12.6725322485818541 160.6087480929832623 0.1082412424623129 8.0000000000000018 75
2.5052315040019599  -12.6730355087699209 160.6199174112332457 0.1081488555532828 8.0000000000000018 76
2.5381761520600543  -12.6734878802676114 160.6299623815492055 0.1080651379694665 8.0000000000000000 77
2.5711222411453596  -12.6738946532960508 160.6389992117215968 0.1079892615431644 8.0000000000000018 78
2.6040696428574837  -12.6742605495851066 160.6471317123662175 0.1079204792896425 8.0000000000000000 79
2.6370182404991342  -12.6745897858162770 160.6544526682010599 0.1078581171554680 8.0000000000000000 80
2.6699679279780328  -12.6748861296931850 160.6610450516437254 0.1078015666467695 8.0000000000000000 81
2.7029186088152510  -12.6751529495314017 160.6669830975675950 0.1077502782379806 8.0000000000000000 82
2.7358701952493618  -12.6753932581475617 160.6723332557299102 0.1077037554735829 8.0000000000000000 83
2.7688226074268503  -12.6756097517303346 160.6771550353483349 0.1076615496858052 8.0000000000000000 84
2.8017757726702150  -12.6758048442907878 160.6815017545274600 0.1076232552603483 8.0000000000000000 85
2.8347296248160538  -12.6759806982160104 160.6854212056853157 0.1075885053901786 7.9999999999999982 86
2.8676841036162051  -12.6761392513849902 160.6889562467720225 0.1075569682644095 7.9999999999999982 87
2.9006391541957335  -12.6762822412496554 160.6921453268872710 0.1075283436453993 8.0000000000000000 88
2.9335947265621667  -12.6764112262348512 160.6950229538666690 0.1075023597925593 8.0000000000000000 89
2.9665507751609623  -12.6765276047679833 160.6976201104969277 0.1074787706960678 7.9999999999999982 90
2.9995072584726978  -12.6766326322115788 160.6999646252266984 0.1074573535878311 8.0000000000000018 91
3.0324641386479176  -12.6767274359392541 160.7020815025413185 0.1074379067006667 8.0000000000000000 92
3.0654213811759958  -12.6768130287668068 160.7039932175601962 0.1074202472499019 8.0000000000000000 93
3.0983789545847324  -12.6768903209249757 160.7057199788791308 0.1074042096144057 7.9999999999999964 94
3.1313368301677271  -12.6769601307384256 160.7072799632093165 0.1073896436965767 8.0000000000000000 95
3.1642949817368713  -12.6770231941561384 160.7086895249511826 0.1073764134430202 7.9999999999999991 96
3.1972533853975698  -12.6770801732614693 160.7099633834798738 0.1073643955096051 8.0000000000000000 97
3.2302120193445307  -12.6771316638751159 160.7111147905963549 0.1073534780563257 7.9999999999999982 98
3.2631708636761743  -12.6771782023513566 160.7121556803207341 0.1073435596589363 8.0000000000000000 99
3.2961299002259206  -12.6772202716560898 160.7130968029526343 0.1073345483256877 8.0000000000000000 100
3.3290891124087616  -12.6772583068054097 160.7139478451090326 0.1073263606087175 8.0000000000000000 101
3.3620484850816941  -12.6772926997342292 160.7147175372541312 0.1073189208007224 7.9999999999999982 102
3.3950080044167219  -12.6773238036567584 160.7154137500679383 0.1073121602085086 7.9999999999999982 103
3.4279676577852713  -12.6773519369735990 160.7160435808482930 0.1073060164958734 8.0000000000000000 104
3.4609274336529516  -12.6773773867741752 160.7166134310101597 0.1073004330890401 7.9999999999999991 105
3.4938873214837192  -12.6774004119777377 160.7171290756275539 0.1072953586385542 8.0000000000000000 106
3.5268473116525803  -12.6774212461513365 160.7175957258583878 0.1072907465321595 8.0000000000000000 107
3.5598073953660552  -12.6774401000390924 160.7180180850034503 0.1072865544537237 8.0000000000000018 108
3.5927675645896895  -12.6774571638331359 160.7184003988659526 0.1072827439837735 8.0000000000000000 109
3.6257278119819834  -12.6774726092133960 160.7187465010076153 0.1072792802376394 8.0000000000000000 110
3.6586881308341472  -12.6774865911804433 160.7190598534326114 0.1072761315376053 8.0000000000000018 111
3.6916485150151734  -12.6774992497028975 160.7193435831728152 0.1072732691158118 7.9999999999999991 112
3.7246089589217277  -12.6775107111987673 160.7196005151987492 0.1072706668449833 8.0000000000000000 113
3.7575694574324423  -12.6775210898677635 160.7198332020331577 0.1072683009943304 7.9999999999999991 114
3.7905300058662155  -12.6775304888900813 160.7200439504075007 0.1072661500082406 8.0000000000000000 115
3.8234905999441509  -12.6775390015052718 160.7202348452613592 0.1072641943055991 8.0000000000000000 116
3.8564512357548231  -12.6775467119835614 160.7204077713573156 0.1072624160977920 8.0000000000000000 117
3.8894119097225728  -12.6775536965005102 160.7205644327531218 0.1072607992236282 7.9999999999999982 118
3.9223726185785579  -12.6775600239249187 160.7207063703476706 0.1072593289995913 8.0000000000000000 119
3.9553333593343245  -12.6775657565286970 160.7208349776957732 0.1072579920839781 8.0000000000000000 120
3.9882941292576666  -12.6775709506267020 160.7209515152658525 0.1072567763536241 8.0000000000000000 121
4.0212549258505863  -12.6775756571534632 160.7210571232973280 0.1072556707920363 8.0000000000000000 122
4.0542157468291551  -12.6775799221832735 160.7211528333970705 0.1072546653878676 8.0000000000000000 123
4.0871765901051225  -12.6775837873991755 160.7212395790012920 0.1072537510427671 8.0000000000000000 124
4.1201374537691100  -12.6775872905161240 160.7213182048165550 0.1072529194877332 8.0000000000000000 125
4.1530983360752609  -12.6775904656627354 160.7213894753397767 0.1072521632071774 8.0000000000000000 126
4.1860592354272077  -12.6775933437258352 160.7214540825501672 0.1072514753699818 8.0000000000000000 127
4.2190201503652549  -12.6775959526614734 160.7215126528537326 0.1072508497669016 8.0000000000000000 128
4.2519810795546613  -12.6775983177756952 160.7215657533549518 0.1072502807537246 7.9999999999999982 129
4.2849420217749303  -12.6776004619781233 160.7216138975212516 0.1072497631996520 8.0000000000000000 130
4.3179029759100267  -12.6776024060109300 160.7216575503003355 0.1072492924404208 8.0000000000000000 131
4.3508639409394272  -12.6776041686557139 160.7216971327436568 0.1072488642357261 8.0000000000000000 132
4.3838249159299414  -12.6776057669204150 160.7217330261849497 0.1072484747305488 8.0000000000000018 133
4.4167859000282395  -12.6776072162081732 160.7217655760163382 0.1072481204200258 7.9999999999999991 134
4.4497468924540140  -12.6776085304699890 160.7217950951021237 0.1072477981175394 8.0000000000000000 135
4.4827078924937336  -12.6776097223426749 160.7218218668650991 0.1072475049257252 7.9999999999999982 136
4.5156688994949272  -12.6776108032735983 160.7218461480770770 0.1072472382101340 7.9999999999999982 137
4.5486299128609637  -12.6776117836334521 160.7218681713826811 0.1072469955753001 7.9999999999999991 138
4.5815909320462715  -12.6776126728182454 160.7218881475818080 0.1072467748429978 8.0000000000000000 139
4.6145519565519759  -12.6776134793415309 160.7219062676943224 0.1072465740324828 7.9999999999999991 140
4.6475129859219013  -12.6776142109178522 160.7219227048283301 0.1072463913425374 8.0000000000000000 141
4.6804740197389210  -12.6776148745382038 160.7219376158698196 0.1072462251351544 8.0000000000000000 142
4.7134350576216217  -12.6776154765383247 160.7219511430122338 0.1072460739207086 8.0000000000000000 143
4.7463960992212400  -12.6776160226605032 160.7219634151405501 0.1072459363444802 8.0000000000000018 144
4.7793571442188796  -12.6776165181094740 160.7219745490840523 0.1072458111744063 8.0000000000000018 145
4.8123181923229525  -12.6776169676030399 160.7219846507499597 0.1072456972899476 8.0000000000000000 146
4.8452792432668463  -12.6776173754178814 160.7219938161504160 0.1072455936719694 8.0000000000000000 147
4.8782402968067835  -12.6776177454310250 160.7220021323313972 0.1072454993935430 7.9999999999999991 148
4.9112013527198730  -12.6776180811573926 160.7220096782147323 0.1072454136115842 8.0000000000000000 149
4.9441624108023206  -12.6776183857837843 160.7220165253596633 0.1072453355592521 8.0000000000000018 150
4.9771234708677996  -12.6776186621996718 160.7220227386531519 0.1072452645390390 8.0000000000000000 151
5.0100845327459504  -12.6776189130250643 160.7220283769350999 0.1072451999164880 8.0000000000000000 152
5.0430455962810186  -12.6776191406357626 160.7220334935640835 0.1072451411144821 8.0000000000000000 153
5.0760066613306032  -12.6776193471862317 160.7220381369306210 0.1072450876080509 8.0000000000000000 154
5.1089677277645178  -12.6776195346302885 160.7220423509212992 0.1072450389196495 8.0000000000000018 155
5.1419287954637385  -12.6776197047398878 160.7220461753399547 0.1072449946148658 8.0000000000000000 156
5.1748898643194554  -12.6776198591221352 160.7220496462891788 0.1072449542985171 8.0000000000000000 157
5.2078509342321908  -12.6776199992346452 160.7220527965154702 0.1072449176111009 8.0000000000000000 158
5.2408120051110068  -12.6776201263995461 160.7220556557228122 0.1072448842255674 8.0000000000000000 159
5.2737730768727715  -12.6776202418160828 160.7220582508558664 0.1072448538443849 8.0000000000000000 160
5.3067341494414899  -12.6776203465721142 160.7220606063578430 0.1072448261968705 8.0000000000000000 161
5.3396952227476913  -12.6776204416544722 160.7220627444031038 0.1072448010367638 8.0000000000000000 162
5.3726562967278708  -12.6776205279583944 160.7220646851087054 0.1072447781400191 7.9999999999999982 163
5.4056173713239835  -12.6776206062960419 160.7220664467258473 0.1072447573027983 7.9999999999999982 164
5.4385784464829676  -12.6776206774042475 160.7220680458133870 0.1072447383396455 8.0000000000000000 165
5.4715395221563243  -12.6776207419515003 160.7220694973954096 0.1072447210818264 7.9999999999999982 166
5.5045005982997219  -12.6776208005443429 160.7220708151039048 0.1072447053758184 7.9999999999999991 167
5.5374616748726408  -12.6776208537330994 160.7220720113080574 0.1072446910819373 8.0000000000000000 168
5.5704227518380476  -12.6776209020171144 160.7220730972315721 0.1072446780730878 7.9999999999999991 169
5.6033838291620910  -12.6776209458494815 160.7220740830591126 0.1072446662336273 7.9999999999999982 170
5.6363449068138367  -12.6776209856413509 160.7220749780327367 0.1072446554583326 7.9999999999999991 171
5.6693059847650078  -12.6776210217658161 160.7220757905394066 0.1072446456514597 8.0000000000000000 172
5.7022670629897654  -12.6776210545614418 160.7220765281902572 0.1072446367258886 8.0000000000000000 173
5.7352281414644919  -12.6776210843354722 160.7220771978924745 0.1072446286023453 8.0000000000000000 174
5.7681892201676055  -12.6776211113667454 160.7220778059147790 0.1072446212086949 8.0000000000000000 175
5.8011502990793833  -12.6776211359083089 160.7220783579463728 0.1072446144792970 8.0000000000000000 176
5.8341113781818006  -12.6776211581898259 160.7220788591508835 0.1072446083544209 8.0000000000000000 177
5.8670724574583852  -12.6776211784197255 160.7220793142145681 0.1072446027797125 8.0000000000000000 178
5.9000335368940879  -12.6776211967871895 160.7220797273911614 0.1072445977057098 8.0000000000000000 179
5.9329946164751535  -12.6776212134639152 160.7220801025413834 0.1072445930874022 8.0000000000000000 180
5.9659556961890150  -12.6776212286057515 160.7220804431696024 0.1072445888838293 7.9999999999999982 181
5.9989167760241884  -12.6776212423541565 160.7220807524567476 0.1072445850577161 8.0000000000000000 182
6.0318778559701798  -12.6776212548375256 160.7220810332900669 0.1072445815751409 8.0000000000000018 183
6.0648389360174031  -12.6776212661723999 160.7220812882904113 0.1072445784052333 8.0000000000000000 184
6.0978000161570973  -12.6776212764645830 160.7220815198369905 0.1072445755198997 7.9999999999999982 185
6.1307610963812591  -12.6776212858101012 160.7220817300894851 0.1072445728935728 7.9999999999999982 186
6.1637221766825760  -12.6776212942961344 160.7220819210083960 0.1072445705029847 7.9999999999999991 187
6.1966832570543655  -12.6776213020018176 160.7220820943736044 0.1072445683269596 8.0000000000000000 188
6.2296443374905266  -12.6776213089989831 160.7220822518006571 0.1072445663462252 7.9999999999999991 189
6.2626054179854789  -12.6776213153528587 160.7220823947564838 0.1072445645432421 8.0000000000000018 190
6.2955664985341304  -12.6776213211226434 160.7220825245726417 0.1072445629020474 8.0000000000000000 191
6.3285275791318272  -12.6776213263620825 160.7220826424580480 0.1072445614081127 7.9999999999999991 192
6.3614886597743174  -12.6776213311199868 160.7220827495103777 0.1072445600482156 8.0000000000000000 193
