 # inv_tmp, energy, phys_var, phys_doublon, phys_num, step_i
0.0411406977674253  -0.6136625904185273 13.6277789954464019 0.8991949547645051 8.0000000000000036 1
0.0813636198575594  -1.1620211465845605 15.0142293577698904 0.8915437091799863 8.0000000000000000 2
0.1206782552777447  -1.7189819838778542 16.8277969532792468 0.8816537860409250 7.9999999999999982 3
0.1591217562136350  -2.2759659669623931 19.0491235020031056 0.8697515369433820 8.0000000000000000 4
0.1967550300692048  -2.8246218482073675 21.6429512587308253 0.8561040507732856 8.0000000000000000 5
0.2336556996818094  -3.3576172819302559 24.5633676115863189 0.8409847859767017 8.0000000000000000 6
0.2699094100028133  -3.8692549468878443 27.7604020735751931 0.8246394043882022 8.0000000000000000 7
0.3056011850929456  -4.3558179106332826 31.1865734687091560 0.8072584203114396 7.9999999999999973 8
0.3408082392713415  -4.8156245238805147 34.8021666502606308 0.7889609893212530 8.0000000000000000 9
0.3755950430578676  -5.2488390612722196 38.5785042996274186 0.7697911217010799 8.0000000000000000 10
0.4100108221295923  -5.6571202821725750 42.4990303471519866 0.7497250261442839 8.0000000000000018 11
0.4440892224259202  -6.0431939980338250 46.5584456216221909 0.7286868288485671 8.0000000000000000 12
0.4778496635785215  -6.4104181329566021 50.7603592251889495 0.7065695657205919 8.0000000000000000 13
0.5112998772724121  -6.7623835729615527 55.1139696375671093 0.6832586961087875 8.0000000000000000 14
0.5444391975262141  -7.1025718506528612 59.6302439299010771 0.6586559476938234 8.0000000000000000 15
0.5772622567667143  -7.4340763230116682 64.3179943448173219 0.6327017348458256 8.0000000000000000 16
0.6097627984107056  -7.7593872381491389 69.1802013347069789 0.6053945752293253 8.0000000000000018 17
0.6419373317359622  -8.0802405783860891 74.2109089776170094 0.5768059266227967 8.0000000000000000 18
0.6737883431332516  -8.3975325297145034 79.3930044614743338 0.5470888574606818 8.0000000000000000 19
0.7053267695581723  -8.7113027980727633 84.6971574602799251 0.5164791618010511 8.0000000000000000 20
0.7365734676008512  -9.0207886211287978 90.0821097130400688 0.4852880908242025 8.0000000000000000 21
0.7675594966787347  -9.3245464232936044 95.4963586185248658 0.4538868297576790 8.0000000000000000 22
0.7983251776551150  -9.6206303991485704 100.8810857025707435 0.4226840639408654 7.9999999999999982 23
0.8289180640000137  -9.9068089895061178 106.1739814252544249 0.3920991648787062 8.0000000000000000 24
0.8593901286155557  -10.1807939550667985 111.3134653421205371 0.3625343434174985 8.0000000000000000 25
0.8897945804402490  -10.4404548455123773 116.2427413853796168 0.3343492952248963 7.9999999999999982 26
0.9201827513062449  -10.6839950252755020 120.9131815595011972 0.3078413267551283 8.0000000000000000 27
0.9506014325792141  -10.9100732239149991 125.2866818431507738 0.2832328477082899 8.0000000000000000 28
0.9810909164753158  -11.1178646402841110 129.3368371727225394 0.2606667627975046 7.9999999999999991 29
1.0116838471537357  -11.3070653137376702 133.0489833688191936 0.2402090434861246 8.0000000000000000 30
1.0424048498234380  -11.4778506743339896 136.4193077376949645 0.2218568747332068 8.0000000000000000 31
1.0732708079829425  -11.6308028914703829 139.4533139710229932 0.2055503638510749 8.0000000000000018 32
1.1042916086775454  -11.7668219892016594 142.1639416123499302 0.1911858297955761 8.0000000000000000 33
1.1354711683690568  -11.8870335894766441 144.5696029902557029 0.1786290282069867 8.0000000000000000 34
1.1668085748087635  -11.9927027545823304 146.6923347083766203 0.1677271499738379 7.9999999999999982 35
1.1982992186275665  -12.0851597670762771 148.5561880025334176 0.1583189233418910 7.9999999999999982 36
1.2299358301356984  -12.1657405100846603 150.1859173857343990 0.1502425647605358 8.0000000000000000 37
1.2617093741882817  -12.2357417284740855 151.6059774612568845 0.1433416241632410 8.0000000000000000 38
1.2936097851294195  -12.2963899134362791 152.8398051478924629 0.1374689552659544 8.0000000000000000 39
1.3256265440095014  -12.3488217413264163 153.9093467616725093 0.1324891304536809 8.0000000000000000 40
1.3577491124964349  -12.3940737248799433 154.8347827986307266 0.1282796400018150 8.0000000000000000 41
1.3899672439548252  -12.4330788119853377 155.6344040697157425 0.1247311927001207 8.0000000000000000 42
1.4222711939243560  -12.4666679374327103 156.3245978504374705 0.1217473901475996 8.0000000000000000 43
1.4546518513073019  -12.4955748833743456 156.9199095729287592 0.1192439945704805 8.0000000000000000 44
1.4871008092067297  -12.5204431621613246 157.4331527733276346 0.1171479589314044 8.0000000000000036 45
1.5196103913917964  -12.5418339603074784 157.8755466350576739 0.1153963430612422 8.0000000000000000 46
1.5521736473387724  -12.5602344564762873 158.2568661262328646 0.1139352024058284 8.0000000000000000 47
1.5847843260056609  -12.5760660455049731 158.5855943014809384 0.1127185068534007 7.9999999999999982 48
1.6174368360844105  -12.5896921682854472 158.8690698783967150 0.1117071251951510 8.0000000000000000 49
1.6501261984776405  -12.6014255711212613 159.1136258414689451 0.1108678948932598 8.0000000000000000 50
1.6828479951491855  -12.6115349063107942 159.3247167334812389 0.1101727857496955 8.0000000000000000 51
1.7155983172540907  -12.6202506461172703 159.5070336240945323 0.1095981586518745 8.0000000000000000 52
1.7483737145079268  -12.6277703218806963 159.6646066369740424 0.1091241158603858 8.0000000000000000 53
1.7811711470513967  -12.6342631244540406 159.8008954858207176 0.1087339365317349 7.9999999999999991 54
1.8139879405532708  -12.6398739158374624 159.9188688074659694 0.1084135897436409 8.0000000000000000 55
1.8468217449291868  -12.6447267082045585 160.0210732568572780 0.1081513167696494 8.0000000000000000 56
1.8796704968000222  -12.6489276679477740 160.1096933965548317 0.1079372744120298 8.0000000000000000 57
1.9125323856428631  -12.6525677007078290 160.1866034103271090 0.1077632316189706 8.0000000000000000 58
1.9454058234777483  -12.6557246698556014 160.2534116236577120 0.1076223122261200 8.0000000000000000 59
1.9782894178673454  -12.6584652964294531 160.3114987423121534 0.1075087773673820 8.0000000000000000 60
2.0111819479716089  -12.6608467836755949 160.3620506363532172 0.1074178418265087 7.9999999999999982 61
2.0440823433857305  -12.6629182044651518 160.4060864095663703 0.1073455193064799 8.0000000000000000 62
2.0769896654902942  -12.6647216851974278 160.4444824084869765 0.1072884922530166 8.0000000000000000 63
2.1099030910524035  -12.6662934154736924 160.4779927443020711 0.1072440024690095 8.0000000000000000 64
2.1428218978320026  -12.6676645089017121 160.5072668265329412 0.1072097592932998 8.0000000000000000 65
2.1757454519661952  -12.6688617368880010 160.5328643403512956 0.1071838625902593 7.9999999999999982 66
2.2086731969241971  -12.6699081541844514 160.5552680397515246 0.1071647382091265 7.9999999999999982 67
2.2416046438456063  -12.6708236322547556 160.5748946763313540 0.1071510839288310 7.9999999999999991 68
2.2745393630940436  -12.6716253141820108 160.5921043376415014 0.1071418242106118 8.0000000000000000 69
2.3074769768765577  -12.6723280028156573 160.6072084293487023 0.1071360723428093 8.0000000000000000 70
2.3404171527961348  -12.6729444921176828 160.6204765011862321 0.1071330987853059 7.9999999999999982 71
2.3733595982201834  -12.6734858501795067 160.6321420872063470 0.1071323047103757 7.9999999999999982 72
2.4063040553618831  -12.6739616611098285 160.6424077056062174 0.1071331998968651 8.0000000000000000 73
2.4392502969838707  -12.6743802319105114 160.6514491418197110 0.1071353842698476 7.9999999999999982 74
2.4721981226449303  -12.6747487695361229 160.6594191201551212 0.1071385324918535 7.9999999999999991 75
2.5051473554203234  -12.6750735325494812 160.6664504535715992 0.1071423811076858 8.0000000000000000 76
2.5380978390351299  -12.6753599611210639 160.6726587478385966 0.1071467178254432 7.9999999999999973 77
2.5710494353577178  -12.6756127885558314 160.6781447249651933 0.1071513725840766 8.0000000000000018 78
2.6040020222072284  -12.6758361370528299 160.6829962211395468 0.1071562101146121 7.9999999999999982 79
2.6369554914348687  -12.6760335999974956 160.6872899062192062 0.1071611237498227 8.0000000000000018 80
2.6699097472440303  -12.6762083127423359 160.6910927648436314 0.1071660302770656 8.0000000000000000 81
2.7028647047187335  -12.6763630135405609 160.6944633733283752 0.1071708656624723 8.0000000000000000 82
2.7358202885338736  -12.6765000960495975 160.6974530014666698 0.1071755815027097 8.0000000000000000 83
2.7687764318241492  -12.6766216546118144 160.7001065640951083 0.1071801420840146 7.9999999999999991 84
2.8017330751915805  -12.6767295233417308 160.7024634436448309 0.1071845219478600 7.9999999999999982 85
2.8346901658340875  -12.6768253098977421 160.7045582018122900 0.1071887038790789 7.9999999999999991 86
2.8676476567798868  -12.6769104246881312 160.7064211958529540 0.1071926772460483 8.0000000000000000 87
2.9006055062144216  -12.6769861061518476 160.7080791127643238 0.1071964366340767 8.0000000000000000 88
2.9335636768882538  -12.6770534426617907 160.7095554327194122 0.1071999807227912 7.9999999999999991 89
2.9665221355958273  -12.6771133915193026 160.7108708314840158 0.1072033113664092 8.0000000000000000 90
2.9994808527163079  -12.6771667954413303 160.7120435301695238 0.1072064328425384 8.0000000000000000 91
3.0324398018088341  -12.6772143968843185 160.7130895994866364 0.1072093512408172 8.0000000000000000 92
3.0653989592554733  -12.6772568505000898 160.7140232246574385 0.1072120739674409 8.0000000000000000 93
3.0983583039460507  -12.6772947339771278 160.7148569362795740 0.1072146093455879 7.9999999999999982 94
3.1313178169997351  -12.6773285574851258 160.7156018116969562 0.1072169662950740 8.0000000000000018 95
3.1642774815189276  -12.6773587719100682 160.7162676508002050 0.1072191540773407 7.9999999999999982 96
3.1972372823715434  -12.6773857760412874 160.7168631296395063 0.1072211820942040 8.0000000000000036 97
3.2301972059982846  -12.6774099228491739 160.7173959347643120 0.1072230597307298 8.0000000000000000 98
3.2631572402418989  -12.6774315249737040 160.7178728808128199 0.1072247962342272 8.0000000000000000 99
3.2961173741958256  -12.6774508595268820 160.7183000135236739 0.1072264006227042 8.0000000000000000 100
3.3290775980699183  -12.6774681722986777 160.7186827000568599 0.1072278816172681 7.9999999999999982 101
3.3620379030712400  -12.6774836814435954 160.7190257082507401 0.1072292475938929 8.0000000000000000 102
3.3949982812981654  -12.6774975807147037 160.7193332762292357 0.1072305065507723 8.0000000000000000 103
3.4279587256462349  -12.6775100423031155 160.7196091735833363 0.1072316660881310 8.0000000000000000 104
3.4609192297244005  -12.6775212193330251 160.7198567551901078 0.1072327333979199 8.0000000000000000 105
3.4938797877804637  -12.6775312480559013 160.7200790085930748 0.1072337152612754 8.0000000000000000 106
3.5268403946346556  -12.6775402497816110 160.7202785957452988 0.1072346180520067 8.0000000000000000 107
3.5598010456204250  -12.6775483325793950 160.7204578898165437 0.1072354477446910 8.0000000000000000 108
3.5927617365316147  -12.6775555927772565 160.7206190076703933 0.1072362099262177 8.0000000000000000 109
3.6257224635753191  -12.6775621162846406 160.7207638385431778 0.1072369098098443 7.9999999999999982 110
3.6586832233297670  -12.6775679797601732 160.7208940693876684 0.1072375522510059 8.0000000000000000 111
3.6916440127066830  -12.6775732516432491 160.7210112072837660 0.1072381417642687 8.0000000000000000 112
3.7246048289176237  -12.6775779930661745 160.7211165992723352 0.1072386825409439 8.0000000000000000 113
3.7575656694438511  -12.6775822586610403 160.7212114499173481 0.1072391784669778 8.0000000000000000 114
3.7905265320093569  -12.6775860972742116 160.7212968368700672 0.1072396331408198 8.0000000000000000 115
3.8234874145566944  -12.6775895525992510 160.7213737246692347 0.1072400498910353 8.0000000000000000 116
3.8564483152253057  -12.6775926637380536 160.7214429769870776 0.1072404317934901 8.0000000000000000 117
3.8894092323320870  -12.6775954656986745 160.7215053675014644 0.1072407816879763 7.9999999999999982 118
3.9223701643539393  -12.6775979898372029 160.7215615895555629 0.1072411021941855 8.0000000000000000 119
3.9553311099121040  -12.6776002642502696 160.7216122647446923 0.1072413957269681 8.0000000000000000 120
3.9882920677580835  -12.6776023141239289 160.7216579505541176 0.1072416645108389 8.0000000000000000 121
4.0212530367609860  -12.6776041620438864 160.7216991471573238 0.1072419105937070 8.0000000000000000 122
4.0542140158961404  -12.6776058282715844 160.7217363034690436 0.1072421358598271 7.9999999999999982 123
4.0871750042348562  -12.6776073309899981 160.7217698225394997 0.1072423420419756 8.0000000000000000 124
4.1201360009351964  -12.6776086865226070 160.7218000663622774 0.1072425307328682 8.0000000000000000 125
4.1530970052336702  -12.6776099095285666 160.7218273601636156 0.1072427033958393 8.0000000000000000 126
4.1860580164377481  -12.6776110131767634 160.7218519962293612 0.1072428613748104 8.0000000000000000 127
4.2190190339191069  -12.6776120093011180 160.7218742373225950 0.1072430059035765 8.0000000000000000 128
4.2519800571075432  -12.6776129085392260 160.7218943197358385 0.1072431381144430 8.0000000000000000 129
4.2849410854854773  -12.6776137204561792 160.7219124560192540 0.1072432590462458 8.0000000000000000 130
4.3179021185829951  -12.6776144536552096 160.7219288374198527 0.1072433696517898 7.9999999999999991 131
4.3508631559733635  -12.6776151158766144 160.7219436360633154 0.1072434708047376 8.0000000000000000 132
4.3838241972689866  -12.6776157140862047 160.7219570069065071 0.1072435633059836 8.0000000000000000 133
4.4167852421177445  -12.6776162545544757 160.7219690894855262 0.1072436478895453 8.0000000000000000 134
4.4497462901996885  -12.6776167429274622 160.7219800094815128 0.1072437252280040 8.0000000000000000 135
4.4827073412240459  -12.6776171842901952 160.7219898801230897 0.1072437959375238 8.0000000000000000 136
4.5156683949265144  -12.6776175832235616 160.7219988034441940 0.1072438605824805 7.9999999999999982 137
4.5486294510668133  -12.6776179438552283 160.7220068714111676 0.1072439196797254 8.0000000000000000 138
4.5815905094264613  -12.6776182699053486 160.7220141669343150 0.1072439737025113 8.0000000000000000 139
4.6145515698067729  -12.6776185647275206 160.7220207647754933 0.1072440230841066 8.0000000000000000 140
4.6475126320270359  -12.6776188313455478 160.7220267323625080 0.1072440682211179 8.0000000000000000 141
4.6804736959228599  -12.6776190724864399 160.7220321305206312 0.1072441094765455 8.0000000000000036 142
4.7134347613446828  -12.6776192906100231 160.7220370141298531 0.1072441471825910 8.0000000000000000 143
4.7463958281564187  -12.6776194879355710 160.7220414327150593 0.1072441816432362 7.9999999999999991 144
4.7793568962342219  -12.6776196664656826 160.7220454309766069 0.1072442131366108 8.0000000000000000 145
4.8123179654653772  -12.6776198280077725 160.7220490492672980 0.1072442419171661 8.0000000000000018 146
4.8452790357472866  -12.6776199741933766 160.7220523240215471 0.1072442682176689 8.0000000000000000 147
4.8782401069865502  -12.6776201064955334 160.7220552881412345 0.1072442922510317 7.9999999999999991 148
4.9112011790981294  -12.6776202262443967 160.7220579713428776 0.1072443142119895 7.9999999999999991 149
4.9441622520045980  -12.6776203346412757 160.7220604004701272 0.1072443342786389 7.9999999999999982 150
4.9771233256354455  -12.6776204327713025 160.7220625997751995 0.1072443526138473 8.0000000000000000 151
5.0100843999264608  -12.6776205216147986 160.7220645911722841 0.1072443693665456 7.9999999999999991 152
5.0430454748191575  -12.6776206020575479 160.7220663944656849 0.1072443846729117 8.0000000000000018 153
5.0760065502602636  -12.6776206748999964 160.7220680275551388 0.1072443986574551 8.0000000000000000 154
5.1089676262012516  -12.6776207408656116 160.7220695066216365 0.1072444114340104 7.9999999999999982 155
5.1419287025979088  -12.6776208006083593 160.7220708462941730 0.1072444231066468 8.0000000000000000 156
5.1748897794099555  -12.6776208547194322 160.7220720597998138 0.1072444337705010 8.0000000000000018 157
5.2078508566006931  -12.6776209037333771 160.7220731591000344 0.1072444435125397 8.0000000000000000 158
5.2408119341366772  -12.6776209481335602 160.7220741550129048 0.1072444524122574 7.9999999999999982 159
5.2737730119874309  -12.6776209883571411 160.7220750573235080 0.1072444605423158 7.9999999999999991 160
5.3067340901251816  -12.6776210247995031 160.7220758748835294 0.1072444679691276 7.9999999999999982 161
5.3396951685246155  -12.6776210578183264 160.7220766157012122 0.1072444747533922 8.0000000000000018 162
5.3726562471626629  -12.6776210877371653 160.7220772870222731 0.1072444809505846 8.0000000000000000 163
5.4056173260182927  -12.6776211148487921 160.7220778954035723 0.1072444866114037 7.9999999999999991 164
5.4385784050723345  -12.6776211394181235 160.7220784467789940 0.1072444917821817 8.0000000000000000 165
5.4715394843073160  -12.6776211616848826 160.7220789465189341 0.1072444965052587 8.0000000000000000 166
5.5045005637073050  -12.6776211818660514 160.7220793994847270 0.1072445008193258 8.0000000000000018 167
5.5374616432577790  -12.6776212001580060 160.7220798100766785 0.1072445047597382 8.0000000000000000 168
5.5704227229454952  -12.6776212167385260 160.7220801822787735 0.1072445083588019 7.9999999999999982 169
5.6033838027583815  -12.6776212317685513 160.7220805196981814 0.1072445116460362 8.0000000000000000 170
5.6363448826854299  -12.6776212453937873 160.7220808256006990 0.1072445146484131 8.0000000000000000 171
5.6693059627166020  -12.6776212577461660 160.7220811029441165 0.1072445173905764 8.0000000000000000 172
5.7022670428427453  -12.6776212689451580 160.7220813544067255 0.1072445198950425 7.9999999999999991 173
5.7352281230555144  -12.6776212790989469 160.7220815824143756 0.1072445221823829 8.0000000000000000 174
5.7681892033472959  -12.6776212883055273 160.7220817891644060 0.1072445242713926 8.0000000000000000 175
5.8011502837111504  -12.6776212966536406 160.7220819766469333 0.1072445261792425 8.0000000000000000 176
5.8341113641407460  -12.6776213042236776 160.7220821466650023 0.1072445279216195 8.0000000000000000 177
5.8670724446303106  -12.6776213110884584 160.7220823008520370 0.1072445295128549 8.0000000000000000 178
5.9000335251745790  -12.6776213173139514 160.7220824406878137 0.1072445309660407 8.0000000000000000 179
5.9329946057687479  -12.6776213229599257 160.7220825675132971 0.1072445322931368 7.9999999999999991 180
5.9659556864084378  -12.6776213280805425 160.7220826825435438 0.1072445335050688 8.0000000000000000 181
5.9989167670896535  -12.6776213327248630 160.7220827868794117 0.1072445346118170 8.0000000000000000 182
6.0318778478087500  -12.6776213369373565 160.7220828815188156 0.1072445356224983 7.9999999999999991 183
6.0648389285624047  -12.6776213407583214 160.7220829673660205 0.1072445365454406 8.0000000000000018 184
6.0978000093475861  -12.6776213442242671 160.7220830452405664 0.1072445373882508 8.0000000000000000 185
6.1307610901615268  -12.6776213473682944 160.7220831158852832 0.1072445381578774 7.9999999999999982 186
6.1637221710017052  -12.6776213502204129 160.7220831799737084 0.1072445388606674 8.0000000000000000 187
6.1966832518658199  -12.6776213528078010 160.7220832381160847 0.1072445395024180 8.0000000000000000 188
6.2296443327517723  -12.6776213551551180 160.7220832908658963 0.1072445400884240 8.0000000000000000 189
6.2626054136576457  -12.6776213572847034 160.7220833387247012 0.1072445406235221 8.0000000000000018 190
6.2955664945816956  -12.6776213592168148 160.7220833821473320 0.1072445411121296 8.0000000000000000 191
6.3285275755223269  -12.6776213609698125 160.7220834215462162 0.1072445415582809 8.0000000000000000 192
6.3614886564780839  -12.6776213625603589 160.7220834572952981 0.1072445419656610 8.0000000000000000 193
