 # inv_tmp, energy, phys_var, phys_doublon, phys_num, step_i
0.0376979919474632  -1.0532237045210611 15.4650839829231437 0.8934580162218413 7.9999999999999991 1
0.0746295178337789  -1.5980951787620010 17.4321991995575800 0.8837122583046173 8.0000000000000018 2
0.1107906212100861  -2.1562086615845892 19.9796621205398814 0.8706592729567983 8.0000000000000000 3
0.1461867113352209  -2.7245363612783633 23.1309066209150842 0.8544068664032005 8.0000000000000000 4
0.1808318468745437  -3.2999937391433876 26.8941621117865779 0.8351103516300370 8.0000000000000000 5
0.2147482944264945  -3.8793727887205116 31.2603105900470766 0.8129596214809782 8.0000000000000000 6
0.2479664170698095  -4.4592583360133391 36.2012515020946779 0.7881720235187155 8.0000000000000000 7
0.2805247629643126  -5.0359629963771413 41.6691039870154611 0.7609918333754191 7.9999999999999982 8
0.3124700880802057  -5.6055138928360755 47.5966247046044373 0.7316948196526873 7.9999999999999991 9
0.3438570058986320  -6.1637124063598154 53.8991507032833823 0.7005946206819873 8.0000000000000018 10
0.3747470235265064  -6.7062701471834663 60.4781739688341418 0.6680469644723168 8.0000000000000000 11
0.4052068745395716  -7.2290050045935601 67.2263561304758355 0.6344483557293701 7.9999999999999991 12
0.4353062424321487  -7.7280660500811162 74.0334842607141042 0.6002274942221182 8.0000000000000000 13
0.4651151246908547  -8.2001494116335074 80.7926522385095609 0.5658297946160895 8.0000000000000018 14
0.4947011702350005  -8.6426703736094659 87.4058988963871002 0.5316972449110700 8.0000000000000000 15
0.5241273160462950  -9.0538680589841807 93.7886575754465639 0.4982469169068950 7.9999999999999982 16
0.5534499674866854  -9.4328340362906413 99.8726243901044057 0.4658515182522810 8.0000000000000000 17
0.5827178464779282  -9.7794704891771005 105.6069514643516811 0.4348246065698270 7.9999999999999991 18
0.6119715110949450  -10.0943937929562360 110.9579343881529780 0.4054118595508731 7.9999999999999982 19
0.6412434575181927  -10.3788040735919047 115.9075368754145927 0.3777885379907884 8.0000000000000000 20
0.6705586629122309  -10.6343410695707661 120.4511653693978133 0.3520623045909477 8.0000000000000000 21
0.6999354136462955  -10.8629429832434532 124.5950885578922680 0.3282800068570041 8.0000000000000000 22
0.7293862770082118  -11.0667198575249728 128.3538234365438484 0.3064368798582359 8.0000000000000000 23
0.7589191036001700  -11.2478478566384759 131.7477136464051739 0.2864867659448628 8.0000000000000000 24
0.7885379812277147  -11.4084865793686525 134.8008323185258064 0.2683522510365000 8.0000000000000000 25
0.8182440921735197  -11.5507185415433486 137.5392649344071856 0.2519339674181050 8.0000000000000000 26
0.8480364507041227  -11.6765081915570015 139.9897728706721409 0.2371186354906863 8.0000000000000018 27
0.8779125155535007  -11.7876770268999689 142.1788043261613552 0.2237856735396972 8.0000000000000000 28
0.9078686835953511  -11.8858912616170311 144.1318021577219497 0.2118123853666516 8.0000000000000000 29
0.9379006772837081  -11.9726587827704982 145.8727528804006681 0.2010778474987224 7.9999999999999982 30
0.9680038411596388  -12.0493326201329083 147.4239232773790036 0.1914656751131448 8.0000000000000000 31
0.9981733630645971  -12.1171186972039173 148.8057372622465664 0.1828658646548431 8.0000000000000000 32
1.0284044346556136  -12.1770861500628413 150.0367534471993167 0.1751759053716091 8.0000000000000000 33
1.0586923640810240  -12.2301789519621185 151.1337118034048785 0.1683013324865286 7.9999999999999991 34
1.0890326517016302  -12.2772279514520779 152.1116250350538621 0.1621558691071181 8.0000000000000000 35
1.1194210378018017  -12.3189627214670132 152.9838964618964496 0.1566612771494872 7.9999999999999991 36
1.1498535294718109  -12.3560228353537802 153.7624512313167315 0.1517470123889549 8.0000000000000000 37
1.1803264123184023  -12.3889683453922359 154.4578716295151821 0.1473497566585284 8.0000000000000000 38
1.2108362513875202  -12.4182893521880722 155.0795302734375696 0.1434128817034315 7.9999999999999973 39
1.2413798846465576  -12.4444146303992902 155.6357172041086869 0.1398858842169980 8.0000000000000000 40
1.2719544115459269  -12.4677193267780755 156.1337585260442893 0.1367238197960635 7.9999999999999982 41
1.3025571785293644  -12.4885317778058180 156.5801253859680173 0.1338867545052582 7.9999999999999973 42
1.3331857628580752  -12.5071395119264892 156.9805328736140666 0.1313392459485925 7.9999999999999982 43
1.3638379557273119  -12.5237945097891590 157.3400289514926840 0.1290498607632454 7.9999999999999991 44
1.3945117453609930  -12.5387177981078803 157.6630738520823911 0.1269907318800858 7.9999999999999991 45
1.4252053005502821  -12.5521034509751921 157.9536105756601501 0.1251371564075453 7.9999999999999991 46
1.4559169549391497  -12.5641220683007653 158.2151272215334643 0.1234672333214774 7.9999999999999982 47
1.4866451922406634  -12.5749237955758151 158.4507119204551771 0.1219615390707836 8.0000000000000000 48
1.5173886324816961  -12.5846409431185400 158.6631011286937110 0.1206028385715021 8.0000000000000000 49
1.5481460193127379  -12.5933902568134961 158.8547220104335906 0.1193758287344457 7.9999999999999982 50
1.5789162083772981  -12.6012748864163058 159.0277295860020956 0.1182669115583444 8.0000000000000000 51
1.6096981567070940  -12.6083860919300133 159.1840392664793455 0.1172639938513694 8.0000000000000000 52
1.6404909130911800  -12.6148047234617167 159.3253553356862540 0.1163563107674668 7.9999999999999982 53
1.6712936093565567  -12.6206025053728901 159.4531958816593828 0.1155342705231484 8.0000000000000000 54
1.7021054524925032  -12.6258431514451015 159.5689146235923772 0.1147893178691863 7.9999999999999982 55
1.7329257175492971  -12.6305833341722078 159.6737200280136904 0.1141138141120407 8.0000000000000000 56
1.7637537412429762  -12.6348735281266560 159.7686920602661473 0.1135009316997322 7.9999999999999982 57
1.7945889162004600  -12.6387587445917902 159.8547968743381205 0.1129445615984841 8.0000000000000000 58
1.8254306857830600  -12.6422791722607748 159.9328997056898629 0.1124392318850906 8.0000000000000000 59
1.8562785394307175  -12.6454707367362769 160.0037761976992670 0.1119800361630746 8.0000000000000000 60
1.8871320084738874  -12.6483655897822906 160.0681223623888911 0.1115625705772041 8.0000000000000000 61
1.9179906623645910  -12.6509925377461698 160.1265633498406089 0.1111828783507800 7.9999999999999982 62
1.9488541052826731  -12.6533774172511642 160.1796611777775752 0.1108374009038510 7.9999999999999982 63
1.9797219730775999  -12.6555434251285810 160.2279215528253360 0.1105229347291140 7.9999999999999991 64
2.0105939305101441  -12.6575114085892757 160.2717998976261811 0.1102365933068951 7.9999999999999982 65
2.0414696687620459  -12.6593001208022926 160.3117066829336750 0.1099757734325371 7.9999999999999991 66
2.0723489031851408  -12.6609264463362674 160.3480121507858200 0.1097381254100267 7.9999999999999991 67
2.1032313712645339  -12.6624056003083503 160.3810505035764606 0.1095215266360077 7.9999999999999973 68
2.1341168307732348  -12.6637513045617638 160.4111236240849507 0.1093240581596163 8.0000000000000018 69
2.1650050580981257  -12.6649759437442793 160.4385043830878885 0.1091439838569143 8.0000000000000036 70
2.1958958467194267  -12.6660907037744330 160.4634395838745604 0.1089797319050572 8.0000000000000018 71
2.2267890058278059  -12.6671056948514895 160.4861525866743364 0.1088298782816067 7.9999999999999991 72
2.2576843590650655  -12.6680300608807777 160.5068456505385939 0.1086931320493528 8.0000000000000000 73
2.2885817433759037  -12.6688720769414722 160.5257020254865097 0.1085683222173494 8.0000000000000036 74
2.3194810079596664  -12.6696392362133050 160.5428878236252501 0.1084543859952010 8.0000000000000000 75
2.3503820133122200  -12.6703383275970669 160.5585536943955844 0.1083503582804874 8.0000000000000018 76
2.3812846303491826  -12.6709755051070925 160.5728363260082574 0.1082553622390632 8.0000000000000000 77
2.4121887396026995  -12.6715563499786690 160.5858597924549542 0.1081686008552074 8.0000000000000000 78
2.4430942304848053  -12.6720859263159209 160.5977367631406878 0.1080893493435901 7.9999999999999982 79
2.4740010006111697  -12.6725688310045559 160.6085695901562360 0.1080169483280604 8.0000000000000000 80
2.5049089551796704  -12.6730092385254700 160.6184512864343219 0.1079507977036200 7.9999999999999973 81
2.5358180063988347  -12.6734109412290330 160.6274664064877982 0.1078903511078439 8.0000000000000000 82
2.5667280729616975  -12.6737773855630209 160.6356918400737470 0.1078351109366487 8.0000000000000000 83
2.5976390795610804  -12.6741117046894498 160.6431975279476774 0.1077846238468569 8.0000000000000000 84
2.6285509564427034  -12.6744167478746839 160.6500471078285273 0.1077384766946063 8.0000000000000018 85
2.6594636389928974  -12.6746951069930986 160.6562984977898623 0.1076962928644363 8.0000000000000000 86
2.6903770673579901  -12.6749491404459000 160.6620044234884972 0.1076577289489539 8.0000000000000000 87
2.7212911860927402  -12.6751809947625453 160.6672128949393255 0.1076224717434348 7.9999999999999991 88
2.7522059438354218  -12.6753926241226651 160.6719676379222790 0.1075902355236324 8.0000000000000000 89
2.7831212930074050  -12.6755858080099415 160.6763084845612184 0.1075607595785142 8.0000000000000000 90
2.8140371895352545  -12.6757621671864875 160.6802717271284564 0.1075338059726908 7.9999999999999991 91
2.8449535925935674  -12.6759231781558306 160.6838904387011837 0.1075091575159835 8.0000000000000018 92
2.8758704643669164  -12.6760701862645817 160.6871947639140217 0.1074866159199569 8.0000000000000018 93
2.9067877698294087  -12.6762044175771447 160.6902121827188807 0.1074660001233454 8.0000000000000000 94
2.9377054765405015  -12.6763269896435133 160.6929677497587932 0.1074471447701672 8.0000000000000000 95
2.9686235544558386  -12.6764389212678168 160.6954843116996585 0.1074298988259792 7.9999999999999991 96
2.9995419757519484  -12.6765411413742868 160.6977827046250695 0.1074141243192010 8.0000000000000018 97
3.0304607146637794  -12.6766344970571883 160.6998819333876725 0.1073996951957439 7.9999999999999982 98
3.0613797473340960  -12.6767197608927589 160.7017993346231890 0.1073864962763585 7.9999999999999982 99
3.0922990516738524  -12.6767976375831299 160.7035507249606781 0.1073744223071550 8.0000000000000000 100
3.1232186072327459  -12.6768687699953588 160.7051505358163865 0.1073633770946847 7.9999999999999991 101
3.1541383950791704  -12.6769337446524748 160.7066119360203800 0.1073532727178121 8.0000000000000000 102
3.1850583976889086  -12.6769930967276512 160.7079469434029306 0.1073440288093489 8.0000000000000018 103
3.2159785988419083  -12.6770473145878437 160.7091665263617983 0.1073355719011021 8.0000000000000018 104
3.2468989835265467  -12.6770968439286662 160.7102806963321200 0.1073278348265852 7.9999999999999964 105
3.2778195378508586  -12.6771420915381867 160.7112985919918060 0.1073207561761881 7.9999999999999982 106
3.3087402489602025  -12.6771834287237191 160.7122285559574095 0.1073142798000883 8.0000000000000000 107
3.3396611049609097  -12.6772211944326152 160.7130782046555737 0.1073083543546270 8.0000000000000000 108
3.3705820948494791  -12.6772556980948714 160.7138544919874903 0.1073029328882702 7.9999999999999991 109
3.4015032084469183  -12.6772872222128825 160.7145637673491478 0.1072979724636311 8.0000000000000000 110
3.4324244363378660  -12.6773160247212964 160.7152118285160327 0.1072934338123562 7.9999999999999982 111
3.4633457698141328  -12.6773423411377770 160.7158039698548464 0.1072892810199688 8.0000000000000000 112
3.4942672008223696  -12.6773663865234205 160.7163450262813171 0.1072854812380251 8.0000000000000000 113
3.5251887219155389  -12.6773883572701216 160.7168394133453262 0.1072820044211829 8.0000000000000000 114
3.5561103262079325  -12.6774084327302266 160.7172911637889001 0.1072788230869938 8.0000000000000000 115
3.5870320073334789  -12.6774267767027098 160.7177039608919245 0.1072759120964303 7.9999999999999982 116
3.6179537594070861  -12.6774435387886619 160.7180811688918993 0.1072732484533350 8.0000000000000000 117
3.6488755769888348  -12.6774588556276608 160.7184258607355787 0.1072708111211423 8.0000000000000018 118
3.6797974550507764  -12.6774728520257476 160.7187408434014628 0.1072685808553679 8.0000000000000000 119
3.7107193889461789  -12.6774856419845037 160.7190286810071882 0.1072665400504965 7.9999999999999982 120
3.7416413743810311  -12.6774973296400901 160.7192917158964747 0.1072646726000190 8.0000000000000000 121
3.7725634073876404  -12.6775080101200857 160.7195320878851703 0.1072629637684775 8.0000000000000018 122
3.8034854843001757  -12.6775177703255721 160.7197517518286531 0.1072614000744826 8.0000000000000000 123
3.8344076017320212  -12.6775266896448784 160.7199524936570469 0.1072599691837529 8.0000000000000000 124
3.8653297565547895  -12.6775348406050892 160.7201359450143059 0.1072586598113122 7.9999999999999982 125
3.8962519458789022  -12.6775422894667962 160.7203035966224149 0.1072574616320549 8.0000000000000000 126
3.9271741670355991  -12.6775490967669935 160.7204568104832560 0.1072563651989605 7.9999999999999982 127
3.9580964175602831  -12.6775553178148499 160.7205968310202593 0.1072553618682972 7.9999999999999982 128
3.9890186951771054  -12.6775610031442234 160.7207247952513285 0.1072544437312156 8.0000000000000000 129
4.0199409977846940  -12.6775661989269537 160.7208417420786191 0.1072536035511827 8.0000000000000018 130
4.0508633234429476  -12.6775709473501941 160.7209486207726172 0.1072528347067569 8.0000000000000036 131
4.0817856703608104  -12.6775752869610301 160.7210462987193864 0.1072521311392438 7.9999999999999982 132
4.1127080368849649  -12.6775792529811824 160.7211355684974023 0.1072514873048167 8.0000000000000000 133
4.1436304214893687  -12.6775828775943893 160.7212171543395698 0.1072508981307187 8.0000000000000036 134
4.1745528227655697  -12.6775861902088955 160.7212917180365253 0.1072503589751971 8.0000000000000000 135
4.2054752394137562  -12.6775892176972729 160.7213598643289743 0.1072498655908518 8.0000000000000018 136
4.2363976702344726  -12.6775919846152938 160.7214221458320367 0.1072494140911047 8.0000000000000000 137
4.2673201141209578  -12.6775945134020773 160.7214790675350855 0.1072490009195253 8.0000000000000000 138
4.2982425700520706  -12.6775968245627055 160.7215310909109007 0.1072486228217661 8.0000000000000000 139
4.3291650370857271  -12.6775989368352064 160.7215786376706319 0.1072482768198880 8.0000000000000036 140
4.3600875143528626  -12.6776008673429725 160.7216220931934743 0.1072479601888694 8.0000000000000000 141
4.3910100010518205  -12.6776026317341088 160.7216618096605316 0.1072476704351149 8.0000000000000018 142
4.4219324964431843  -12.6776042443086379 160.7216981089171952 0.1072474052767904 8.0000000000000018 143
4.4528549998450000  -12.6776057181347745 160.7217312850889357 0.1072471626258324 8.0000000000000000 144
4.4837775106283493  -12.6776070651551684 160.7217616069711994 0.1072469405714860 8.0000000000000036 145
4.5147000282132748  -12.6776082962838856 160.7217893202120820 0.1072467373652427 8.0000000000000018 146
4.5456225520649998  -12.6776094214951272 160.7218146493081292 0.1072465514070590 8.0000000000000000 147
4.5765450816904494  -12.6776104499042184 160.7218377994265097 0.1072463812327458 7.9999999999999991 148
4.6074676166350255  -12.6776113898416245 160.7218589580705839 0.1072462255024303 8.0000000000000000 149
4.6383901564796375  -12.6776122489205676 160.7218782966019717 0.1072460829899977 8.0000000000000000 150
4.6693127008379509  -12.6776130340988562 160.7218959716308291 0.1072459525734305 8.0000000000000000 151
4.7002352493538551  -12.6776137517353256 160.7219121262868100 0.1072458332259687 8.0000000000000036 152
4.7311578016991174  -12.6776144076414319 160.7219268913796668 0.1072457240080202 8.0000000000000018 153
4.7620803575712225  -12.6776150071284235 160.7219403864609149 0.1072456240597599 8.0000000000000000 154
4.7930029166913739  -12.6776155550504068 160.7219527207926717 0.1072455325943558 8.0000000000000000 155
4.8239254788026535  -12.6776160558436963 160.7219639942341587 0.1072454488917719 7.9999999999999982 156
4.8548480436683139  -12.6776165135628354 160.7219742980511796 0.1072453722930964 8.0000000000000018 157
4.8857706110702175  -12.6776169319134127 160.7219837156555968 0.1072453021953521 8.0000000000000018 158
4.9166931808073731  -12.6776173142821627 160.7219923232821088 0.1072452380467475 7.9999999999999982 159
4.9476157526946123  -12.6776176637643889 160.7220001906057973 0.1072451793423317 8.0000000000000000 160
4.9785383265613463  -12.6776179831890392 160.7220073813065540 0.1072451256200165 8.0000000000000018 161
5.0094609022504297  -12.6776182751416506 160.7220139535853036 0.1072450764569387 8.0000000000000000 162
5.0403834796171099  -12.6776185419853160 160.7220199606358619 0.1072450314661296 7.9999999999999991 163
5.0713060585280525  -12.6776187858798064 160.7220254510754671 0.1072449902934678 8.0000000000000018 164
5.1022286388604563  -12.6776190087990557 160.7220304693384492 0.1072449526148904 8.0000000000000000 165
5.1331512205012206  -12.6776192125472207 160.7220350560371855 0.1072449181338423 8.0000000000000018 166
5.1640738033461879  -12.6776193987732118 160.7220392482897751 0.1072448865789399 8.0000000000000036 167
5.1949963872994420  -12.6776195689840918 160.7220430800214501 0.1072448577018350 7.9999999999999991 168
5.2259189722726536  -12.6776197245573012 160.7220465822393578 0.1072448312752592 7.9999999999999991 169
5.2568415581844974  -12.6776198667517743 160.7220497832831256 0.1072448070912346 7.9999999999999991 170
5.2877641449600903  -12.6776199967181462 160.7220527090548217 0.1072447849594361 8.0000000000000000 171
5.3186867325304901  -12.6776201155080930 160.7220553832285077 0.1072447647056930 8.0000000000000000 172
5.3496093208322213  -12.6776202240828120 160.7220578274419154 0.1072447461706177 8.0000000000000036 173
5.3805319098068543  -12.6776203233208200 160.7220600614715806 0.1072447292083509 7.9999999999999982 174
5.4114544994005964  -12.6776204140250996 160.7220621033932559 0.1072447136854136 8.0000000000000000 175
5.4423770895639336  -12.6776204969295350 160.7220639697278841 0.1072446994796557 8.0000000000000000 176
5.4732996802512890  -12.6776205727049138 160.7220656755754646 0.1072446864792943 8.0000000000000000 177
5.5042222714207130  -12.6776206419643067 160.7220672347373238 0.1072446745820344 8.0000000000000018 178
5.5351448630335973  -12.6776207052680743 160.7220686598277553 0.1072446636942629 8.0000000000000018 179
5.5660674550544069  -12.6776207631283739 160.7220699623763380 0.1072446537303119 8.0000000000000018 180
5.5969900474504408  -12.6776208160133201 160.7220711529207904 0.1072446446117847 8.0000000000000000 181
5.6279126401916066  -12.6776208643507609 160.7220722410927749 0.1072446362669377 8.0000000000000000 182
5.6588352332502101  -12.6776209085317575 160.7220732356956319 0.1072446286301166 7.9999999999999982 183
5.6897578266007720  -12.6776209489137379 160.7220741447755756 0.1072446216412392 8.0000000000000000 184
5.7206804202198454  -12.6776209858233830 160.7220749756867235 0.1072446152453222 8.0000000000000000 185
5.7516030140858581  -12.6776210195592860 160.7220757351510088 0.1072446093920489 8.0000000000000000 186
5.7825256081789620  -12.6776210503943574 160.7220764293120965 0.1072446040353727 8.0000000000000000 187
5.8134482024808953  -12.6776210785780457 160.7220770637853775 0.1072445991331550 8.0000000000000000 188
5.8443707969748617  -12.6776211043383462 160.7220776437034431 0.1072445946468332 8.0000000000000000 189
5.8752933916454051  -12.6776211278836364 160.7220781737573247 0.1072445905411174 8.0000000000000000 190
5.9062159864783128  -12.6776211494043842 160.7220786582347500 0.1072445867837127 8.0000000000000000 191
5.9371385814605047  -12.6776211690746798 160.7220791010548169 0.1072445833450645 8.0000000000000000 192
5.9680611765799565  -12.6776211870536368 160.7220795057994849 0.1072445801981267 7.9999999999999991 193
