 # inv_tmp, energy, phys_var, phys_doublon, phys_num, step_i
0.0409431711073375  -0.8481948493134184 13.5344376681386009 0.8934481492451097 8.0000000000000000 1
0.0810054573359554  -1.3793891368420930 15.4882694731096517 0.8861976888375391 8.0000000000000000 2
0.1201546851800121  -1.9356308163180107 18.0663919611555137 0.8748765188569232 8.0000000000000018 3
0.1583706617324863  -2.5144065983212003 21.3150143709492284 0.8591870861711134 8.0000000000000000 4
0.1956476884019989  -3.1122829085152137 25.2638950227520880 0.8389247700822891 8.0000000000000000 5
0.2319966054592697  -3.7248947511293200 29.9213199449964620 0.8140129919189857 8.0000000000000000 6
0.2674460246957653  -4.3470110125053401 35.2698762701203634 0.7845361173330071 8.0000000000000000 7
0.3020424806338295  -4.9726810825561687 41.2637530792402174 0.7507643171377795 8.0000000000000000 8
0.3358493660653571  -5.5954562334863969 47.8282406016592603 0.7131642444919606 8.0000000000000000 9
0.3689446795137930  -6.2086689699838908 54.8618787493039690 0.6723906073994770 8.0000000000000000 10
0.4014177628190961  -6.8057461271701865 62.2413394364884880 0.6292565414222403 8.0000000000000018 11
0.4333653218999483  -7.3805272068836958 69.8286735926699293 0.5846846136307282 7.9999999999999991 12
0.4648870942650193  -7.9275581549659337 77.4801154125577654 0.5396442978536645 8.0000000000000000 13
0.4960815526022576  -8.4423326227764655 85.0553317036062708 0.4950846549926805 8.0000000000000000 14
0.5270420145055597  -8.9214582031837963 92.4259258221429576 0.4518718248649232 8.0000000000000000 15
0.5578534638327221  -9.3627342566712457 99.4821806242198932 0.4107395573020496 8.0000000000000000 16
0.5885902852385696  -9.7651396101772150 106.1373997033578007 0.3722579092283552 8.0000000000000000 17
0.6193149867603067  -10.1287402527093455 112.3296682384394671 0.3368214426117989 8.0000000000000000 18
0.6500778606421284  -10.4545364496257189 118.0212782028639253 0.3046548626765796 8.0000000000000000 19
0.6809174339483092  -10.7442735429161296 123.1963547726683146 0.2758317843086115 8.0000000000000000 20
0.7118615028089786  -11.0002406848376904 127.8573461978510579 0.2503014436219427 8.0000000000000000 21
0.7429285294911339  -11.2250778552516195 132.0210166086763479 0.2279184757345882 7.9999999999999982 22
0.7741292014449439  -11.4216054815386290 135.7144603666909859 0.2084719183465528 8.0000000000000000 23
0.8054679924014425  -11.5926845670075522 138.9714941033104481 0.1917109109951199 7.9999999999999991 24
0.8369446139573768  -11.7411097056732494 141.8296234968753993 0.1773657932525501 8.0000000000000018 25
0.8685552917396380  -11.8695333440991249 144.3276526572882119 0.1651642705967233 8.0000000000000000 26
0.9002938374501152  -11.9804172301602705 146.5039142253789350 0.1548429590239918 8.0000000000000000 27
0.9321525149023788  -12.0760059161184490 148.3950458448797463 0.1461549704583933 8.0000000000000000 28
0.9641227151579923  -12.1583170774017653 150.0352156189416064 0.1388743316751911 8.0000000000000018 29
0.9961954649151397  -12.2291438910646590 151.4556961732504021 0.1327980165318714 8.0000000000000000 30
1.0283617956111435  -12.2900654853228097 152.6846957290692330 0.1277462794013853 8.0000000000000000 31
1.0606130003001344  -12.3424623136706391 153.7473689125151850 0.1235618533537402 7.9999999999999991 32
1.0929408028610066  -12.3875340981239432 154.6659457772163080 0.1201084491396409 8.0000000000000000 33
1.1253374606194901  -12.4263186640623182 155.4599323185757953 0.1172688762577413 8.0000000000000000 34
1.1577958177692025  -12.4597105341711938 156.1463484703230620 0.1149430120202479 8.0000000000000000 35
1.1903093234790061  -12.4884785658573261 156.7399798472593488 0.1130457696910819 8.0000000000000000 36
1.2228720254919225  -12.5132822220151425 157.2536274265804082 0.1115051606413003 8.0000000000000000 37
1.2554785474305403  -12.5346862800176346 157.6983452506799495 0.1102605050019239 7.9999999999999991 38
1.2881240559208125  -12.5531739287656450 158.0836604633197453 0.1092608172128466 8.0000000000000000 39
1.3208042219838432  -12.5691582964811310 158.4177729259421312 0.1084633741602687 8.0000000000000000 40
1.3535151798599088  -12.5829925073224125 158.7077336232886182 0.1078324617395346 8.0000000000000000 41
1.3862534854536741  -12.5949783942361897 158.9596023207810163 0.1073382886739895 8.0000000000000018 42
1.4190160758622687  -12.6053740072971916 159.1785856864739515 0.1069560527412376 7.9999999999999991 43
1.4518002309145313  -12.6144000573455184 159.3691574937419659 0.1066651430853406 8.0000000000000000 44
1.4846035372653978  -12.6222454284176937 159.5351626919246542 0.1064484622247010 8.0000000000000000 45
1.5174238553177661  -12.6290718823147365 159.6799071533474148 0.1062918521408023 7.9999999999999982 46
1.5502592890566378  -12.6350180666879162 159.8062348343271424 0.1061836100719882 7.9999999999999991 47
1.5831081587547036  -12.6402029255632371 159.9165939647086248 0.1061140810875859 8.0000000000000018 48
1.6159689764278735  -12.6447285990790714 160.0130937317764790 0.1060753160204917 7.9999999999999991 49
1.6488404238707963  -12.6486828878450801 160.0975527673252259 0.1060607847932495 8.0000000000000018 50
1.6817213330766170  -12.6521413469832087 160.1715405920460853 0.1060651365285240 8.0000000000000000 51
1.7146106688350846  -12.6551690656737428 160.2364130255398322 0.1060839990625092 8.0000000000000000 52
1.7475075133034923  -12.6578221798985879 160.2933424365516828 0.1061138115699064 8.0000000000000000 53
1.7804110523521020  -12.6601491589940078 160.3433435878699527 0.1061516849633002 7.9999999999999982 54
1.8133205634970633  -12.6621919005101233 160.3872957239167363 0.1061952855560365 8.0000000000000000 55
1.8462354052474672  -12.6639866626258595 160.4259614558434635 0.1062427381873051 7.9999999999999991 56
1.8791550077078547  -12.6655648588853165 160.4600029179591445 0.1062925456136238 8.0000000000000000 57
1.9120788642923219  -12.6669537362062119 160.4899955994072229 0.1063435214849676 7.9999999999999991 58
1.9450065244207788  -12.6681769538743758 160.5164401949519117 0.1063947346584860 8.0000000000000000 59
1.9779375870815901  -12.6692550784970699 160.5397727673410202 0.1064454629691751 8.0000000000000018 60
2.0108716951575114  -12.6702060075711422 160.5603734698565290 0.1064951548849940 7.9999999999999991 61
2.0438085304235081  -12.6710453323655123 160.5785740403288173 0.1065433977324957 8.0000000000000000 62
2.0767478091356066  -12.6717866491667515 160.5946642461511260 0.1065898913957138 7.9999999999999973 63
2.1096892781394434  -12.6724418265444889 160.6088974328885115 0.1066344265723940 8.0000000000000000 64
2.1426327114357093  -12.6730212351192861 160.6214953062155359 0.1066768668232844 8.0000000000000036 65
2.1755779071472485  -12.6735339453260600 160.6326520575379391 0.1067171337769009 8.0000000000000000 66
2.2085246848392903  -12.6739878978309370 160.6425379272219232 0.1067551949579958 8.0000000000000000 67
2.2414728831502360  -12.6743900505552176 160.6513022854269650 0.1067910537962901 7.9999999999999991 68
2.2744223576956282  -12.6747465056653628 160.6590762987294170 0.1068247414457582 8.0000000000000000 69
2.3073729792125546  -12.6750626193855780 160.6659752407079225 0.1068563101062718 8.0000000000000018 70
2.3403246319157436  -12.6753430970649603 160.6721004961604535 0.1068858275907447 7.9999999999999991 71
2.3732772120401715  -12.6755920755719025 160.6775413014082972 0.1069133729237466 8.0000000000000000 72
2.4062306265480817  -12.6758131947842276 160.6823762570076326 0.1069390327932867 8.0000000000000018 73
2.4391847919810408  -12.6760096596856613 160.6866746439774829 0.1069628987072830 8.0000000000000000 74
2.4721396334400230  -12.6761842943606418 160.6904975702145180 0.1069850647311051 8.0000000000000000 75
2.5050950836785875  -12.6763395889934749 160.6938989699841898 0.1070056257033322 7.9999999999999982 76
2.5380510822960409  -12.6764777408200633 160.6969264761580121 0.1070246758441838 7.9999999999999982 77
2.5710075750190517  -12.6766006898458805 160.6996221821121367 0.1070423076855281 8.0000000000000018 78
2.6039645130615794  -12.6767101500294341 160.7020233078571607 0.1070586112634246 8.0000000000000000 79
2.6369218525541913  -12.6768076365326614 160.7041627829567005 0.1070736735242123 7.9999999999999982 80
2.6698795540349169  -12.6768944895561901 160.7060697570716457 0.1070875779035406 7.9999999999999991 81
2.7028375819947086  -12.6769718952061901 160.7077700474951030 0.1071004040447324 8.0000000000000000 82
2.7357959044713929  -12.6770409037783551 160.7092865317752910 0.1071122276287004 7.9999999999999991 83
2.7687544926867278  -12.6771024457922010 160.7106394924389008 0.1071231202924935 7.9999999999999991 84
2.8017133207217988  -12.6771573460639821 160.7118469198911157 0.1071331496175999 8.0000000000000000 85
2.8346723652265329  -12.6772063360679077 160.7129247787664212 0.1071423791724995 8.0000000000000000 86
2.8676316051596134  -12.6772500648022124 160.7138872423094256 0.1071508685967650 8.0000000000000018 87
2.9005910215554800  -12.6772891083478960 160.7147468987670891 0.1071586737163380 7.9999999999999991 88
2.9335505973155001  -12.6773239782836065 160.7155149332589019 0.1071658466815450 8.0000000000000000 89
2.9665103170207074  -12.6773551290984887 160.7162012881414626 0.1071724361210197 8.0000000000000000 90
2.9994701667637971  -12.6773829647268421 160.7168148045021780 0.1071784873060323 8.0000000000000000 91
3.0324301339983442  -12.6774078443122562 160.7173633470770824 0.1071840423208247 8.0000000000000000 92
3.0653902074034112  -12.6774300872952583 160.7178539146008234 0.1071891402354591 8.0000000000000000 93
3.0983503767619265  -12.6774499779066510 160.7182927373432335 0.1071938172784353 8.0000000000000018 94
3.1313106328513962  -12.6774677691380919 160.7186853633668306 0.1071981070069513 8.0000000000000000 95
3.1642709673456579  -12.6774836862529483 160.7190367348514997 0.1072020404731796 8.0000000000000000 96
3.1972313727265291  -12.6774979298920840 160.7193512556636961 0.1072056463853503 8.0000000000000000 97
3.2301918422043299  -12.6775106788229461 160.7196328512046080 0.1072089512627619 8.0000000000000000 98
3.2631523696463667  -12.6775220923740086 160.7198850214451227 0.1072119795841150 8.0000000000000000 99
3.2961129495125538  -12.6775323125917261 160.7201108879444860 0.1072147539287814 7.9999999999999991 100
3.3290735767974526  -12.6775414661524852 160.7203132355540447 0.1072172951107959 8.0000000000000000 101
3.3620342469780677  -12.6775496660581126 160.7204945494228809 0.1072196223054966 8.0000000000000000 102
3.3949949559668164  -12.6775570131402233 160.7206570478478511 0.1072217531688479 8.0000000000000000 103
3.4279557000691532  -12.6775635973953698 160.7208027114474760 0.1072237039495651 8.0000000000000000 104
3.4609164759453717  -12.6775694991706303 160.7209333090794985 0.1072254895942211 8.0000000000000000 105
3.4938772805761755  -12.6775747902167524 160.7210504208761677 0.1072271238455683 8.0000000000000000 106
3.5268381112316254  -12.6775795346239875 160.7211554587235867 0.1072286193343354 8.0000000000000000 107
3.5597989654431399  -12.6775837896540704 160.7212496844764757 0.1072299876647896 8.0000000000000000 108
3.5927598409782329  -12.6775876064800350 160.7213342261634352 0.1072312394943647 7.9999999999999991 109
3.6257207358177239  -12.6775910308443756 160.7214100924097693 0.1072323846076635 8.0000000000000000 110
3.6586816481351736  -12.6775941036447275 160.7214781852773626 0.1072334319851467 8.0000000000000018 111
3.6916425762783218  -12.6775968614552283 160.7215393116999564 0.1072343898668183 8.0000000000000000 112
3.7246035187523305  -12.6775993369907987 160.7215941936696311 0.1072352658112084 8.0000000000000000 113
3.7575644742046577  -12.6776015595206655 160.7216434773139326 0.1072360667499510 8.0000000000000000 114
3.7905254414114000  -12.6776035552368214 160.7216877409869085 0.1072367990382411 8.0000000000000000 115
3.8234864192649556  -12.6776053475824106 160.7217275024828211 0.1072374685014454 8.0000000000000000 116
3.8564474067628822  -12.6776069575445263 160.7217632254699424 0.1072380804781279 7.9999999999999991 117
3.8894084029978333  -12.6776084039152757 160.7217953252296638 0.1072386398597392 8.0000000000000000 118
3.9223694071484658  -12.6776097035246504 160.7218241737776907 0.1072391511272063 8.0000000000000000 119
3.9553304184712257  -12.6776108714483531 160.7218501044350489 0.1072396183846442 8.0000000000000000 120
3.9882914362929198  -12.6776119211931970 160.7218734159085614 0.1072400453903999 8.0000000000000000 121
4.0212524600040096  -12.6776128648626791 160.7218943759347667 0.1072404355856255 8.0000000000000000 122
4.0542134890525476  -12.6776137133047655 160.7219132245343758 0.1072407921205645 8.0000000000000000 123
4.0871745229386898  -12.6776144762439245 160.7219301769202389 0.1072411178787246 7.9999999999999991 124
4.1201355612097457  -12.6776151623990483 160.7219454260953171 0.1072414154990971 8.0000000000000000 125
4.1530966034556958  -12.6776157795888089 160.7219591451747362 0.1072416873965742 7.9999999999999991 126
4.1860576493051349  -12.6776163348258546 160.7219714894623053 0.1072419357807022 7.9999999999999991 127
4.2190186984216158  -12.6776168344009896 160.7219825983065107 0.1072421626729024 7.9999999999999991 128
4.2519797505003289  -12.6776172839584262 160.7219925967606855 0.1072423699222786 8.0000000000000000 129
4.2849408052651103  -12.6776176885630925 160.7220015970680720 0.1072425592201234 7.9999999999999991 130
4.3179018624657228  -12.6776180527608879 160.7220096999910197 0.1072427321132272 8.0000000000000000 131
4.3508629218754145  -12.6776183806324898 160.7220169959994109 0.1072428900160848 8.0000000000000000 132
4.3838239832886892  -12.6776186758415825 160.7220235663353947 0.1072430342220893 7.9999999999999991 133
4.4167850465193039  -12.6776189416780323 160.7220294839664234 0.1072431659137933 8.0000000000000018 134
4.4497461113984533  -12.6776191810964249 160.7220348144376203 0.1072432861723153 8.0000000000000000 135
4.4827071777731202  -12.6776193967507318 160.7220396166366641 0.1072433959859583 8.0000000000000000 136
4.5156682455045933  -12.6776195910252216 160.7220439434779564 0.1072434962581076 7.9999999999999982 137
4.5486293144671173  -12.6776197660622145 160.7220478425154511 0.1072435878144644 8.0000000000000000 138
4.5815903845466757  -12.6776199237869260 160.7220513564925568 0.1072436714096714 8.0000000000000000 139
4.6145514556398863  -12.6776200659297320 160.7220545238342879 0.1072437477333804 8.0000000000000000 140
4.6475125276530003  -12.6776201940461206 160.7220573790887670 0.1072438174158070 8.0000000000000000 141
4.6804736005010010  -12.6776203095345803 160.7220599533228835 0.1072438810328166 8.0000000000000018 142
4.7134346741067867  -12.6776204136526118 160.7220622744771390 0.1072439391105788 8.0000000000000000 143
4.7463957484004213  -12.6776205075311381 160.7220643676839416 0.1072439921298278 7.9999999999999991 144
4.7793568233184702  -12.6776205921873704 160.7220662555531021 0.1072440405297609 7.9999999999999991 145
4.8123178988033883  -12.6776206685363704 160.7220679584276581 0.1072440847116055 8.0000000000000000 146
4.8452789748029721  -12.6776207374014369 160.7220694946138906 0.1072441250418822 7.9999999999999991 147
4.8782400512698567  -12.6776207995234138 160.7220708805876370 0.1072441618553905 8.0000000000000000 148
4.9112011281610659  -12.6776208555690246 160.7220721311790612 0.1072441954579384 8.0000000000000018 149
4.9441622054376042  -12.6776209061383760 160.7220732597390338 0.1072442261288405 8.0000000000000000 150
4.9771232830640830  -12.6776209517717078 160.7220742782882894 0.1072442541232016 8.0000000000000000 151
5.0100843610083858  -12.6776209929554042 160.7220751976514066 0.1072442796740043 7.9999999999999991 152
5.0430454392413644  -12.6776210301274261 160.7220760275770033 0.1072443029940189 7.9999999999999982 153
5.0760065177365590  -12.6776210636822029 160.7220767768460519 0.1072443242775493 8.0000000000000000 154
5.1089675964699541  -12.6776210939749951 160.7220774533687120 0.1072443437020277 8.0000000000000000 155
5.1419286754197460  -12.6776211213258065 160.7220780642717841 0.1072443614294744 8.0000000000000000 156
5.1748897545661414  -12.6776211460229504 160.7220786159770114 0.1072443776078308 8.0000000000000000 157
5.2078508338911682  -12.6776211683262048 160.7220791142715370 0.1072443923721776 8.0000000000000000 158
5.2408119133785069  -12.6776211884696703 160.7220795643714268 0.1072444058458491 8.0000000000000000 159
5.2737729930133410  -12.6776212066643374 160.7220799709784274 0.1072444181414506 7.9999999999999991 160
5.3067340727822145  -12.6776212231003740 160.7220803383312386 0.1072444293617885 7.9999999999999991 161
5.3396951526729035  -12.6776212379492392 160.7220806702517280 0.1072444396007202 7.9999999999999982 162
5.3726562326743101  -12.6776212513654976 160.7220809701860276 0.1072444489439301 7.9999999999999991 163
5.4056173127763500  -12.6776212634885290 160.7220812412422219 0.1072444574696397 7.9999999999999982 164
5.4385783929698661  -12.6776212744440322 160.7220814862235443 0.1072444652492549 8.0000000000000018 165
5.4715394732465379  -12.6776212843453706 160.7220817076584467 0.1072444723479583 8.0000000000000000 166
5.5045005535988070  -12.6776212932948020 160.7220819078285103 0.1072444788252505 7.9999999999999991 167
5.5374616340198051  -12.6776213013845851 160.7220820887918649 0.1072444847354431 8.0000000000000000 168
5.5704227145032927  -12.6776213086979386 160.7220822524058121 0.1072444901281107 7.9999999999999991 169
5.6033837950435990  -12.6776213153099775 160.7220824003466362 0.1072444950485028 8.0000000000000000 170
5.6363448756355723  -12.6776213212884716 160.7220825341271393 0.1072444995379200 8.0000000000000000 171
5.6693059562745285  -12.6776213266945881 160.7220826551128425 0.1072445036340579 7.9999999999999991 172
5.7022670369562132  -12.6776213315835449 160.7220827645366512 0.1072445073713208 8.0000000000000000 173
5.7352281176767566  -12.6776213360051813 160.7220828635115026 0.1072445107811090 7.9999999999999982 174
5.7681891984326432  -12.6776213400045012 160.7220829530425590 0.1072445138920797 8.0000000000000000 175
5.8011502792206766  -12.6776213436221283 160.7220830340371833 0.1072445167303865 8.0000000000000000 176
5.8341113600379515  -12.6776213468947532 160.7220831073150862 0.1072445193198979 7.9999999999999982 177
5.8670724408818264  -12.6776213498555137 160.7220831736166815 0.1072445216823961 7.9999999999999991 178
5.9000335217498980  -12.6776213525343415 160.7220832336106469 0.1072445238377592 8.0000000000000018 179
5.9329946026399849  -12.6776213549582568 160.7220832879011141 0.1072445258041272 8.0000000000000000 180
5.9659556835500984  -12.6776213571516898 160.7220833370339506 0.1072445275980538 8.0000000000000000 181
5.9989167644784365  -12.6776213591367011 160.7220833815023013 0.1072445292346451 7.9999999999999991 182
6.0318778454233541  -12.6776213609332302 160.7220834217520462 0.1072445307276853 8.0000000000000000 183
6.0648389263833584  -12.6776213625592877 160.7220834581857787 0.1072445320897529 7.9999999999999991 184
6.0978000073570922  -12.6776213640311504 160.7220834911676661 0.1072445333323254 8.0000000000000000 185
6.1307610883433190  -12.6776213653635388 160.7220835210267751 0.1072445344658760 7.9999999999999991 186
6.1637221693409154  -12.6776213665697490 160.7220835480605388 0.1072445354999609 8.0000000000000000 187
6.1966832503488600  -12.6776213676618070 160.7220835725380255 0.1072445364432998 8.0000000000000036 188
6.2296443313662220  -12.6776213686505770 160.7220835947022692 0.1072445373038489 8.0000000000000000 189
6.2626054123921557  -12.6776213695458857 160.7220836147732257 0.1072445380888675 7.9999999999999991 190
6.2955664934258913  -12.6776213703566256 160.7220836329497331 0.1072445388049792 7.9999999999999991 191
6.3285275744667286  -12.6776213710908294 160.7220836494116440 0.1072445394582273 8.0000000000000000 192
6.3614886555140320  -12.6776213717557571 160.7220836643215307 0.1072445400541257 7.9999999999999982 193
