 # inv_tmp, energy, phys_var, phys_doublon, phys_num, step_i
0.0274572336564057  -0.8405499631753484 18.4714718498004373 1.4000145440434841 12.0000000000000036 1
0.0545475051363436  -1.3305765314443467 19.9713625865231919 1.3948124308715706 12.0000000000000036 2
0.0812690356050400  -1.8288568989478911 21.9311029748990158 1.3877312457873863 12.0000000000000036 3
0.1076226090224162  -2.3338232799552401 24.3626686370019883 1.3788078835236115 12.0000000000000036 4
0.1336115847361252  -2.8438095375441890 27.2723685391543178 1.3680991280599377 12.0000000000000036 5
0.1592418361864391  -3.3570813259807597 30.6605359603486889 1.3556798686554328 11.9999999999999929 6
0.1845216170839686  -3.8718692218546051 34.5214381208604024 1.3416408294471660 11.9999999999999964 7
0.2094613599707513  -4.3864036891300735 38.8434252919848291 1.3260858657793526 11.9999999999999911 8
0.2340734147725791  -4.8989507735785729 43.6093257122459335 1.3091288894057165 12.0000000000000018 9
0.2583717368659960  -5.4078474781975174 48.7970763039705133 1.2908904956689791 12.0000000000000036 10
0.2823715355742462  -5.9115357901057273 54.3805621824370178 1.2714943808734653 11.9999999999999893 11
0.3060888951716468  -6.4085942959198610 60.3306216477883197 1.2510636579614938 12.0000000000000036 12
0.3295403816165035  -6.8977662539003202 66.6161592519821966 1.2297172017284195 12.0000000000000071 13
0.3527426493682161  -7.3779829293388026 73.2052991331288752 1.2075661774899404 12.0000000000000036 14
0.3757120636088980  -7.8483809964346989 80.0665053777388778 1.1847109243448024 12.0000000000000000 15
0.3984643536997796  -8.3083129089890821 87.1695965222587859 1.1612383708857037 11.9999999999999964 16
0.4210143134584143  -8.7573493658864585 94.4865876216326228 1.1372201535589073 12.0000000000000000 17
0.4433755626249739  -9.1952733408772680 101.9923050902884825 1.1127115841547537 12.0000000000000000 18
0.4655603816125518  -9.6220655812253355 109.6647356600440162 1.0877515738312304 12.0000000000000000 19
0.4875796283693770  -10.0378819635530228 117.4850898159649688 1.0623635693779219 12.0000000000000000 20
0.5094427420931897  -10.4430235818673331 125.4375803605414461 1.0365574971311500 12.0000000000000018 21
0.5311578338638507  -10.8379008927096407 133.5089368262628398 1.0103326454799786 12.0000000000000000 22
0.5527318592522833  -11.2229936270133415 141.6876950645698230 0.9836813524789758 11.9999999999999964 23
0.5741708628754749  -11.5988084794371460 149.9633175107480270 0.9565933045068653 12.0000000000000036 24
0.5954802799617088  -11.9658367917996458 158.3252125710081941 0.9290601987290632 12.0000000000000000 25
0.6166652755669587  -12.3245145467149531 166.7617305722225183 0.9010804800131325 11.9999999999999947 26
0.6377310985027111  -12.6751869663925927 175.2592179953821585 0.8726638360279269 12.0000000000000000 27
0.6586834247191993  -13.0180798520520575 183.8012104857460827 0.8438351270642602 11.9999999999999964 28
0.6795286642813686  -13.3532794842989428 192.3678376959333320 0.8146374440558546 11.9999999999999982 29
0.7002742075650134  -13.6807224253359578 200.9354990148326294 0.7851340325763454 11.9999999999999964 30
0.7209285901053385  -14.0001959291708324 209.4768489519148886 0.7554088929106182 11.9999999999999964 31
0.7415015615859379  -14.3113489108715406 217.9611055723624986 0.7255659634900352 11.9999999999999929 32
0.7620040523421184  -14.6137126136539930 226.3546671022780288 0.6957269093728804 11.9999999999999964 33
0.7824480396888536  -14.9067293299638326 234.6219936843447442 0.6660276571868435 12.0000000000000071 34
0.8028463253212447  -15.1897868773214455 242.7266867336783491 0.6366139284942294 11.9999999999999964 35
0.8232122428285054  -15.4622560915913230 250.6326807050244270 0.6076361101778323 12.0000000000000036 36
0.8435593199872228  -15.7235284426954838 258.3054537617379651 0.5792438512028043 11.9999999999999964 37
0.8639009232597388  -15.9730510221366941 265.7131658668489536 0.5515807833133681 11.9999999999999964 38
0.8842499115872636  -16.2103565721447609 272.8276445972651345 0.5247797289484849 12.0000000000000000 39
0.9046183233974138  -16.4350868546962587 279.6251584141674584 0.4989586896483705 11.9999999999999982 40
0.9250171154180608  -16.6470083993420666 286.0869410702945288 0.4742178142996728 11.9999999999999893 41
0.9454559653290526  -16.8460204180582664 292.1994557863999376 0.4506374430542608 12.0000000000000036 42
0.9659431434690888  -17.0321553410892790 297.9544105682371082 0.4282772236214664 11.9999999999999929 43
0.9864854526010659  -17.2055729437980212 303.3485541593408925 0.4071762130962066 12.0000000000000071 44
1.0070882297355654  -17.3665493674090641 308.3832943121539643 0.3873538175833784 11.9999999999999893 45
1.0277554005360754  -17.5154624845687579 313.0641860740656170 0.3688113861323317 12.0000000000000000 46
1.0484895749240146  -17.6527750472028373 317.4003382706033562 0.3515342635019303 12.0000000000000000 47
1.0692921719975161  -17.7790169179532711 321.4037825376155979 0.3354941138822425 12.0000000000000053 48
1.0901635629770883  -17.8947674717501464 325.0888425556033781 0.3206513493406453 12.0000000000000000 49
1.1111032222455459  -18.0006390026476950 328.4715329801093731 0.3069575266684052 12.0000000000000053 50
1.1321098783244061  -18.0972617171810413 331.5690091235527461 0.2943576093705874 11.9999999999999964 51
1.1531816585430477  -18.1852706635966079 334.3990805915051396 0.2827920238075273 12.0000000000000018 52
1.1743162230012649  -18.2652947509231858 336.9797953476412431 0.2721984672955516 12.0000000000000000 53
1.1955108850649014  -18.3379478591171043 339.3290953274423600 0.2625134498445697 12.0000000000000089 54
1.2167627169969666  -18.4038219312683218 341.4645407723792232 0.2536735696558163 12.0000000000000018 55
1.2380686403916468  -18.4634818668618195 343.4030977983187540 0.2456165357190849 11.9999999999999911 56
1.2594255018591640  -18.5174619949438828 345.1609821467554866 0.2382819594528498 12.0000000000000000 57
1.2808301349390716  -18.5662638906587354 346.7535513665373514 0.2316119421449666 11.9999999999999982 58
1.3022794095416310  -18.6103553011968224 348.1952376120701160 0.2255514868432820 11.9999999999999947 59
1.3237702703765579  -18.6501699617902403 349.4995136212904754 0.2200487631241054 12.0000000000000000 60
1.3452997658676908  -18.6861081041759469 350.6788850873970205 0.2150552515283157 12.0000000000000036 61
1.3668650690074737  -18.7185374852256246 351.7449034336040086 0.2105257919612170 12.0000000000000107 62
1.3884634915062448  -18.7477947895566146 352.7081938457369006 0.2064185574306559 12.0000000000000000 63
1.4100924924612341  -18.7741872851074199 353.5784942484720546 0.2026949714561487 12.0000000000000036 64
1.4317496826259681  -18.7979946337877770 354.3647016862013288 0.1993195845277845 11.9999999999999964 65
1.4534328252144679  -18.8194707798223426 355.0749232658442338 0.1962599222568397 12.0000000000000000 66
1.4751398340341733  -18.8388458560842729 355.7165294262161979 0.1934863154107971 12.0000000000000036 67
1.4968687696117549  -18.8563280635980774 356.2962078155748031 0.1909717198924006 12.0000000000000000 68
1.5186178338595118  -18.8721054916614861 356.8200164901445532 0.1886915329056715 12.0000000000000036 69
1.5403853637278391  -18.8863478559613966 357.2934354993908528 0.1866234100339269 12.0000000000000000 70
1.5621698242011244  -18.8992081399454470 357.7214162078785193 0.1847470867081247 12.0000000000000036 71
1.5839698009197141  -18.9108241308565681 358.1084279282935086 0.1830442065359747 11.9999999999999929 72
1.6057839926479986  -18.9213198465383066 358.4585016150614933 0.1814981581599358 11.9999999999999911 73
1.6276112037569210  -18.9308068526317186 358.7752705014502226 0.1800939216833957 12.0000000000000000 74
1.6494503368468716  -18.9393854723407777 359.0620076628553647 0.1788179252196445 11.9999999999999947 75
1.6713003856026831  -18.9471458927400960 359.3216605616711945 0.1776579117515393 11.9999999999999982 76
1.6931604279450412  -18.9541691727977977 359.5568826803785214 0.1766028162183812 11.9999999999999911 77
1.7150296195208790  -18.9605281590303356 359.7700623839742207 0.1756426525512262 12.0000000000000018 78
1.7369071875583808  -18.9662883150970281 359.9633491743496734 0.1747684102424847 12.0000000000000036 79
1.7587924250990670  -18.9715084717787228 360.1386775109498899 0.1739719599469807 11.9999999999999929 80
1.7806846856094789  -18.9762415037291596 360.2977883764069702 0.1732459675587366 12.0000000000000036 81
1.8025833779675693  -18.9805349392002185 360.4422487648514561 0.1725838161819296 11.9999999999999911 82
1.8244879618134184  -18.9844315086667734 360.5734692658758149 0.1719795354087365 11.9999999999999929 83
1.8463979432501800  -18.9879696379387823 360.6927199097295897 0.1714277373255934 12.0000000000000000 84
1.8683128708785253  -18.9911838909839190 360.8011444303198800 0.1709235586885012 11.9999999999999947 85
1.8902323321463281  -18.9941053672999018 360.8997730926068925 0.1704626087339933 11.9999999999999929 86
1.9121559499944878  -18.9967620582942551 360.9895342205015822 0.1700409221227400 12.0000000000000000 87
1.9340833797795354  -18.9991791667544838 361.0712645508823471 0.1696549165455477 11.9999999999999964 88
1.9560143064538247  -19.0013793931327903 361.1457185289904714 0.1693013545552843 11.9999999999999964 89
1.9779484419845885  -19.0033831920288669 361.2135766505322749 0.1689773092219790 12.0000000000000053 90
1.9998855229938444  -19.0052090019355440 361.2754529463496738 0.1686801332412609 11.9999999999999982 91
2.0218253086019207  -19.0068734510178032 361.3319016966693198 0.1684074311579162 12.0000000000000107 92
2.0437675784583691  -19.0083915414204512 361.3834234536526537 0.1681570343962895 12.0000000000000018 93
2.0657121309449469  -19.0097768143524313 361.4304704433802158 0.1679269788173891 11.9999999999999964 94
2.0876587815363785  -19.0110414979657705 361.4734514113403065 0.1677154845487157 11.9999999999999929 95
2.1096073613055872  -19.0121966398409050 361.5127359691377364 0.1675209378570483 12.0000000000000053 96
2.1315577155610650  -19.0132522257018266 361.5486584942444210 0.1673418748566808 11.9999999999999840 97
2.1535097026049512  -19.0142172858159917 361.5815216293797221 0.1671769668659953 11.9999999999999893 98
2.1754631926013355  -19.0150999903791487 361.6115994232368394 0.1670250072438410 11.9999999999999982 99
2.1974180665450893  -19.0159077350500816 361.6391401500243319 0.1668848995541166 11.9999999999999947 100
2.2193742153223557  -19.0166472176753913 361.6643688413252562 0.1667556469222759 12.0000000000000036 101
2.2413315388545674  -19.0173245071339139 361.6874895603040159 0.1666363424613556 11.9999999999999982 102
2.2632899453185398  -19.0179451051319823 361.7086874451300673 0.1665261606576624 12.0000000000000089 103
2.2852493504358380  -19.0185140016911802 361.7281305456497194 0.1664243496175423 12.0000000000000018 104
2.3072096768252086  -19.0190357249916175 361.7459714748264332 0.1663302240868424 11.9999999999999893 105
2.3291708534123963  -19.0195143861625127 361.7623488941683263 0.1662431591638079 12.0000000000000036 106
2.3511328148922046  -19.0199537195483757 361.7773888503573971 0.1661625846343857 11.9999999999999964 107
2.3730955012380655  -19.0203571189237230 361.7912059784655412 0.1660879798662803 12.0000000000000071 108
2.3950588572548517  -19.0207276700771430 361.8039045855160225 0.1660188692047193 12.0000000000000142 109
2.4170228321710385  -19.0210681801419881 361.8155796267024584 0.1659548178188249 12.0000000000000000 110
2.4389873792666501  -19.0213812040103818 361.8263175852784457 0.1658954279527974 12.0000000000000036 111
2.4609524555337847  -19.0216690681307981 361.8361972659696448 0.1658403355408774 12.0000000000000036 112
2.4829180213667734  -19.0219338919589553 361.8452905107243964 0.1657892071493202 11.9999999999999964 113
2.5048840402793187  -19.0221776073018525 361.8536628447000112 0.1657417372124268 11.9999999999999947 114
2.5268504786461805  -19.0224019757702152 361.8613740595474155 0.1656976455330922 11.9999999999999982 115
2.5488173054672156  -19.0226086045318965 361.8684787403240080 0.1656566750213908 11.9999999999999964 116
2.5707844921517702  -19.0227989605382533 361.8750267417059376 0.1656185896474516 11.9999999999999822 117
2.5927520123216006  -19.0229743833776972 361.8810636185769454 0.1655831725873245 11.9999999999999947 118
2.6147198416306821  -19.0231360968944934 361.8866310155478914 0.1655502245427263 12.0000000000000000 119
2.6366879576003974  -19.0232852196965041 361.8917670194977063 0.1655195622175238 11.9999999999999964 120
2.6586563394687408  -19.0234227746625777 361.8965064787865913 0.1654910169355552 12.0000000000000071 121
2.6806249680522987  -19.0235496975493277 361.9008812924382141 0.1654644333859691 12.0000000000000018 122
2.7025938256198816  -19.0236668447860851 361.9049206722388590 0.1654396684836663 12.0000000000000071 123
2.7245628957767831  -19.0237750005379347 361.9086513804010110 0.1654165903336827 12.0000000000000000 124
2.7465321633587316  -19.0238748831090412 361.9120979451760149 0.1653950772894896 12.0000000000000000 125
2.7685016143346823  -19.0239671507505506 361.9152828565497089 0.1653750170961872 12.0000000000000036 126
2.7904712357176948  -19.0240524069306645 361.9182267439524594 0.1653563061104818 12.0000000000000071 127
2.8124410154831772  -19.0241312051194136 361.9209485377048736 0.1653388485901422 11.9999999999999911 128
2.8344109424938670  -19.0242040531348415 361.9234656157661334 0.1653225560463636 11.9999999999999964 129
2.8563810064309689  -19.0242714170923755 361.9257939371766497 0.1653073466531144 12.0000000000000071 130
2.8783511977309177  -19.0243337249956426 361.9279481634628155 0.1652931447081311 12.0000000000000000 131
2.9003215075272819  -19.0243913700028564 361.9299417691468648 0.1652798801407533 11.9999999999999964 132
2.9222919275973767  -19.0244447133991414 361.9317871423730253 0.1652674880622538 12.0000000000000071 133
2.9442624503131785  -19.0244940873029371 361.9334956765891889 0.1652559083547532 12.0000000000000036 134
2.9662330685961900  -19.0245397971310339 361.9350778541088403 0.1652450852951828 11.9999999999999893 135
2.9882037758758884  -19.0245821238455086 361.9365433223140940 0.1652349672111022 11.9999999999999893 136
3.0101745660515138  -19.0246213260015118 361.9379009631693407 0.1652255061654851 11.9999999999999982 137
3.0321454334568649  -19.0246576416158462 361.9391589566716334 0.1652166576678680 11.9999999999999964 138
3.0541163728278637  -19.0246912898720240 361.9403248387894791 0.1652083804094986 12.0000000000000089 139
3.0760873792726948  -19.0247224726765509 361.9414055543829249 0.1652006360203479 11.9999999999999982 140
3.0980584482442493  -19.0247513760809639 361.9424075055780463 0.1651933888460552 12.0000000000000000 141
3.1200295755147307  -19.0247781715808699 361.9433365959846469 0.1651866057430479 11.9999999999999964 142
3.1420007571522306  -19.0248030173034159 361.9441982711549599 0.1651802558902529 12.0000000000000000 143
3.1639719894990965  -19.0248260590937299 361.9449975555929768 0.1651743106159550 11.9999999999999964 144
3.1859432691519740  -19.0248474315085474 361.9457390866435844 0.1651687432384965 12.0000000000000000 145
3.2079145929433706  -19.0248672587258802 361.9464271455287872 0.1651635289196293 12.0000000000000089 146
3.2298859579246222  -19.0248856553780712 361.9470656857781705 0.1651586445294422 12.0000000000000036 147
3.2518573613501522  -19.0249027273147533 361.9476583592945076 0.1651540685218818 11.9999999999999929 148
3.2738288006629124  -19.0249185723023899 361.9482085402500502 0.1651497808199752 12.0000000000000036 149
3.2958002734809368  -19.0249332806650848 361.9487193470035322 0.1651457627099427 12.0000000000000036 150
3.3177717775848721  -19.0249469358729897 361.9491936622199546 0.1651419967434626 11.9999999999999982 151
3.3397433109064618  -19.0249596150817197 361.9496341513358857 0.1651384666474142 12.0000000000000000 152
3.3617148715178709  -19.0249713896276518 361.9500432795122720 0.1651351572404833 12.0000000000000071 153
3.3836864576218120  -19.0249823254825330 361.9504233272203351 0.1651320543560732 12.0000000000000036 154
3.4056580675423809  -19.0249924836713689 361.9507764045517320 0.1651291447710094 12.0000000000000036 155
3.4276296997165785  -19.0250019206562619 361.9511044643838886 0.1651264161395702 12.0000000000000018 156
3.4496013526864386  -19.0250106886892532 361.9514093144823050 0.1651238569324177 11.9999999999999964 157
3.4715730250917463  -19.0250188361366206 361.9516926286376020 0.1651214563800398 12.0000000000000018 158
3.4935447156632597  -19.0250264077775704 361.9519559569107514 0.1651192044203467 12.0000000000000036 159
3.5155164232164422  -19.0250334450786838 361.9522007350685158 0.1651170916500941 12.0000000000000036 160
3.5374881466456278  -19.0250399864468456 361.9524282932698611 0.1651151092798362 12.0000000000000000 161
3.5594598849186183  -19.0250460674619362 361.9526398640683738 0.1651132490921344 12.0000000000000000 162
3.5814316370716575  -19.0250517210912236 361.9528365897847948 0.1651115034027681 11.9999999999999929 163
3.6034034022047581  -19.0250569778870045 361.9530195293072552 0.1651098650247221 12.0000000000000053 164
3.6253751794773761  -19.0250618661685387 361.9531896643521804 0.1651083272347335 12.0000000000000018 165
3.6473469681043675  -19.0250664121900321 361.9533479052498706 0.1651068837422097 12.0000000000000053 166
3.6693187673522538  -19.0250706402952474 361.9534950962729454 0.1651055286603340 12.0000000000000036 167
3.6912905765357253  -19.0250745730605324 361.9536320205571656 0.1651042564791990 11.9999999999999964 168
3.7132623950144050  -19.0250782314264129 361.9537594046441313 0.1651030620408137 12.0000000000000000 169
3.7352342221898303  -19.0250816348192728 361.9538779226738825 0.1651019405158480 12.0000000000000018 170
3.7572060575026511  -19.0250848012635743 361.9539882002586637 0.1651008873819847 12.0000000000000053 171
3.7791779004300103  -19.0250877474855820 361.9540908180611609 0.1650998984037629 12.0000000000000018 172
3.8011497504831118  -19.0250904890091945 361.9541863150981271 0.1650989696138030 12.0000000000000000 173
3.8231216072049579  -19.0250930402443998 361.9542751917994678 0.1650980972953141 11.9999999999999858 174
3.8450934701682358  -19.0250954145690265 361.9543579128320516 0.1650972779657909 11.9999999999999929 175
3.8670653389733536  -19.0250976244043919 361.9544349097091640 0.1650965083618139 11.9999999999999964 176
3.8890372132466084  -19.0250996812851660 361.9545065832103319 0.1650957854248765 12.0000000000000071 177
3.9110090926384724  -19.0251015959241379 361.9545733056136214 0.1650951062881639 11.9999999999999929 178
3.9329809768220092  -19.0251033782718508 361.9546354227673532 0.1650944682642183 12.0000000000000036 179
3.9549528654913808  -19.0251050375721675 361.9546932559998140 0.1650938688334250 12.0000000000000036 180
3.9769247583604712  -19.0251065824132652 361.9547471038951585 0.1650933056332672 12.0000000000000036 181
3.9988966551615852  -19.0251080207752068 361.9547972439320347 0.1650927764482905 12.0000000000000124 182
4.0208685556442560  -19.0251093600737065 361.9548439340039749 0.1650922792007306 12.0000000000000124 183
4.0428404595741068  -19.0251106072008938 361.9548874138246788 0.1650918119417591 11.9999999999999947 184
4.0648123667318092  -19.0251117685629829 361.9549279062389360 0.1650913728433037 12.0000000000000071 185
4.0867842769121117  -19.0251128501148479 361.9549656184196920 0.1650909601904007 11.9999999999999982 186
4.1087561899229019  -19.0251138573928920 361.9550007429974130 0.1650905723740514 11.9999999999999929 187
4.1307281055843799  -19.0251147955444466 361.9550334590950342 0.1650902078845392 12.0000000000000036 188
4.1527000237282437  -19.0251156693558201 361.9550639332883293 0.1650898653051814 12.0000000000000000 189
4.1746719441969482  -19.0251164832780510 361.9550923204998867 0.1650895433064855 12.0000000000000000 190
4.1966438668430133  -19.0251172414506229 361.9551187648287396 0.1650892406406824 12.0000000000000036 191
