 # inv_tmp, energy, phys_var, phys_doublon, phys_num, step_i
0.0274411376273077  -0.8832757286901870 18.5604306758042412 1.4048240824528413 12.0000000000000036 1
0.0545159322082706  -1.3730459697276811 20.0404880479630485 1.4009036142627675 11.9999999999999982 2
0.0812245444682383  -1.8692970121391577 21.9569418207037117 1.3950120297364181 12.0000000000000000 3
0.1075702047830750  -2.3700359791330654 24.3140698005103211 1.3871817294657474 12.0000000000000036 4
0.1335591633860417  -2.8731853844863586 27.1097870767278977 1.3774752296360595 12.0000000000000000 5
0.1592005145262348  -3.3766408086734323 30.3357572125719486 1.3659821489333670 12.0000000000000000 6
0.1845058998986689  -3.8783323876842628 33.9778149430557974 1.3528150437915361 12.0000000000000018 7
0.2094891081523980  -4.3762858179739208 38.0166708882683508 1.3381043911427148 11.9999999999999947 8
0.2341655971926893  -4.8686784728169634 42.4288410923439656 1.3219930813861231 12.0000000000000036 9
0.2585519727262893  -5.3538866832494953 47.1877240538901077 1.3046308043139692 12.0000000000000036 10
0.2826654590502767  -5.8305211889611872 52.2647382981756365 1.2861686862176693 12.0000000000000000 11
0.3065233962616419  -6.2974490453384622 57.6304352879964767 1.2667544743998835 12.0000000000000000 12
0.3301427924815915  -6.7538016643199628 63.2555142184381651 1.2465284789498181 11.9999999999999964 13
0.3535399515624401  -7.1989699502315183 69.1116839548994477 1.2256203867018292 11.9999999999999964 14
0.3767301875675549  -7.6325884944392097 75.1723392150914549 1.2041469736645845 12.0000000000000000 15
0.3997276285133285  -8.0545114157226454 81.4130393519725004 1.1822106709858888 12.0000000000000000 16
0.4225451045386933  -8.4647826582180912 87.8117959035284059 1.1598988915917516 12.0000000000000036 17
0.4451941104650350  -8.8636034344560315 94.3491877997550290 1.1372840006786618 12.0000000000000000 18
0.4676848298031364  -9.2512991195276228 101.0083303634613685 1.1144238098114780 11.9999999999999964 19
0.4900262064473957  -9.6282873726142277 107.7747266142124971 1.0913624855991442 11.9999999999999929 20
0.5122260511136568  -9.9950486873630418 114.6360281111898587 1.0681317831158625 11.9999999999999929 21
0.5342911714539026  -10.3521000361433337 121.5817291166303988 1.0447525352781026 12.0000000000000036 22
0.5562275171469285  -10.6999718315788037 128.6028136184002619 1.0212363475259498 12.0000000000000036 23
0.5780403336266047  -11.0391881114068582 135.6913708299113068 0.9975874593716531 11.9999999999999964 24
0.5997343201008832  -11.3702496658676129 142.8401919193416916 0.9738047393713456 12.0000000000000036 25
0.6213137889092702  -11.6936197590063458 150.0423592427475796 0.9498837780329892 12.0000000000000000 26
0.6427828239762782  -12.0097121232238599 157.2908392459650599 0.9258190354164355 11.9999999999999964 27
0.6641454361774866  -12.3188810003875879 164.5780911547746825 0.9016059888013052 12.0000000000000000 28
0.6854057129753470  -12.6214131309497297 171.8957050946759182 0.8772432133112995 11.9999999999999929 29
0.7065679589052964  -12.9175217242507117 179.2340847738587684 0.8527343174225728 12.0000000000000036 30
0.7276368226389407  -13.2073425519380407 186.5821907204567083 0.8280896483225701 12.0000000000000071 31
0.7486174056654690  -13.4909323716677854 193.9273597613824336 0.8033276811847286 11.9999999999999964 32
0.7695153473335643  -13.7682698970144983 201.2552145936204511 0.7784760129965811 11.9999999999999964 33
0.7903368812452725  -14.0392594773733421 208.5496737747429847 0.7535718961889709 12.0000000000000071 34
0.8110888588705598  -14.3037375429800697 215.7930673457268540 0.7286622695381074 12.0000000000000000 35
0.8317787377404848  -14.5614817175863127 222.9663569520662918 0.7038032721953844 11.9999999999999911 36
0.8524145335642704  -14.8122223240114881 230.0494523295448346 0.6790592588491261 11.9999999999999982 37
0.8730047379032529  -15.0556558290092291 237.0216091025783669 0.6545013668499610 12.0000000000000018 38
0.8935582053686701  -15.2914596176958018 243.8618867894426216 0.6302057162366238 12.0000000000000071 39
0.9140840164187929  -15.5193073755132183 250.5496414350909617 0.6062513477387664 12.0000000000000000 40
0.9345913234667810  -15.7388843027436920 257.0650249325061623 0.5827180194019940 11.9999999999999929 41
0.9550891889896437  -15.9499014001621617 263.3894631150840837 0.5596839879042362 11.9999999999999929 42
0.9755864245563028  -16.1521081426618274 269.5060870669748283 0.5372238955999953 12.0000000000000053 43
0.9960914391747027  -16.3453029903671663 275.4000964747305034 0.5154068698058618 12.0000000000000107 44
1.0166121041928666  -16.5293413572475529 281.0590396714154622 0.4942949188724872 11.9999999999999964 45
1.0371556403460893  -16.7041408455344680 286.4730016103561638 0.4739416829361966 12.0000000000000018 46
1.0577285306305808  -16.8696837400807169 291.6346976344799486 0.4543915689354737 12.0000000000000053 47
1.0783364607165720  -17.0260169225906104 296.5394769423348293 0.4356792723662603 12.0000000000000000 48
1.0989842867806514  -17.1732494984798763 301.1852446110956407 0.4178296646576112 12.0000000000000036 49
1.1196760290820538  -17.3115485217480334 305.5723146312728886 0.4008580065495921 12.0000000000000036 50
1.1404148884197465  -17.4411332540034323 309.7032085450675822 0.3847704352062341 12.0000000000000000 51
1.1612032818200559  -17.5622684057451544 313.5824150378181230 0.3695646660048582 12.0000000000000036 52
1.1820428934045917  -17.6752567875877808 317.2161254122178775 0.3552308484229725 12.0000000000000036 53
1.2029347363268319  -17.7804317545759965 320.6119585531011467 0.3417525182188835 12.0000000000000000 54
1.2238792218736845  -17.8781497667692300 323.7786870655496614 0.3291075940108132 11.9999999999999929 55
1.2448762322284344  -17.9687833219455726 326.7259740244746240 0.3172693742307777 12.0000000000000036 56
1.2659251939090950  -18.0527144482964133 329.4641274511369602 0.3062074992115857 11.9999999999999964 57
1.2870251494660727  -18.1303288813921348 332.0038774170905072 0.2958888520015941 12.0000000000000053 58
1.3081748255932317  -18.2020109938205863 334.3561786957509980 0.2862783797622621 12.0000000000000000 59
1.3293726963393577  -18.2681394995093314 336.5320402091525693 0.2773398248797725 11.9999999999999911 60
1.3506170405785527  -18.3290839183695269 338.5423811804843126 0.2690363609993791 11.9999999999999893 61
1.3719059932957425  -18.3852017601538904 340.3979128960930325 0.2613311340090816 12.0000000000000000 62
1.3932375905637080  -18.4368363683182146 342.1090442754421588 0.2541877116082115 11.9999999999999964 63
1.4146098083338676  -18.4843153538987828 343.6858090024320518 0.2475704476186384 12.0000000000000036 64
1.4360205953414391  -18.5279495445469067 345.1378117396430412 0.2414447687921182 12.0000000000000071 65
1.4574679005460307  -18.5680323735068775 346.4741908813534224 0.2357773927104734 11.9999999999999964 66
1.4789496956012309  -18.6048396362295279 347.7035953583809373 0.2305364856348013 11.9999999999999982 67
1.5004639928813210  -18.6386295474115400 348.8341731501553795 0.2256917689891063 12.0000000000000018 68
1.5220088595989918  -18.6696430376622580 349.8735693558644471 0.2212145826943502 11.9999999999999947 69
1.5435824285327568  -18.6981042360505185 350.8289319022943005 0.2170779129090723 12.0000000000000000 70
1.5651829058533024  -18.7242210919654788 351.7069232025380643 0.2132563909676341 11.9999999999999911 71
1.5868085764995574  -18.7481860966864815 352.5137363135477244 0.2097262695011416 11.9999999999999964 72
1.6084578075120473  -18.7701770715589298 353.2551143624829137 0.2064653809255744 11.9999999999999982 73
1.6301290496860803  -18.7903579955837792 353.9363722161965597 0.2034530827183538 12.0000000000000142 74
1.6518208378628334  -18.8088798504768242 354.5624195519344539 0.2006701931984575 12.0000000000000018 75
1.6735317901339435  -18.8258814658277061 355.1377846492688946 0.1980989208873744 11.9999999999999964 76
1.6952606061956998  -18.8414903509073532 355.6666383635302964 0.1957227899631699 12.0000000000000036 77
1.7170060650529828  -18.8558235029799981 356.1528178607411519 0.1935265638276418 11.9999999999999929 78
1.7387670222408678  -18.8689881847279359 356.5998497948277191 0.1914961683837613 12.0000000000000071 79
1.7605424067033835  -18.8810826656542048 357.0109726916036834 0.1896186162621944 12.0000000000000053 80
1.7823312174440669  -18.8921969241577727 357.3891583727724992 0.1878819329355828 12.0000000000000142 81
1.8041325200415845  -18.9024133084302761 357.7371323088439112 0.1862750854107744 12.0000000000000000 82
1.8259454431052982  -18.9118071554710525 358.0573928344035153 0.1847879139858673 11.9999999999999982 83
1.8477691747301972  -18.9204473683952443 358.3522291942534821 0.1834110673944369 11.9999999999999929 84
1.8696029589975156  -18.9283969528772502 358.6237384161492514 0.1821359415279343 11.9999999999999964 85
1.8914460925564880  -18.9357135140573583 358.8738410265398784 0.1809546218236963 12.0000000000000000 86
1.9132979213136838  -18.9424497155834253 359.1042956410565239 0.1798598293257087 12.0000000000000089 87
1.9351578372489844  -18.9486537026877144 359.3167124725186454 0.1788448703641429 11.9999999999999911 88
1.9570252753712103  -18.9543694913377259 359.5125658067503309 0.1779035897542736 11.9999999999999964 89
1.9788997108216240  -18.9596373255648132 359.6932055012920273 0.1770303273826975 12.0000000000000107 90
2.0007806561295811  -18.9644940050903372 359.8598675647390337 0.1762198780263235 12.0000000000000071 91
2.0226676586216121  -18.9689731853380827 360.0136838753753636 0.1754674542352659 12.0000000000000036 92
2.0445602979828119  -18.9731056518655130 360.1556910974834409 0.1747686521028216 11.9999999999999893 93
2.0664581839676046  -18.9769195711667180 360.2868388524623242 0.1741194197427123 12.0000000000000018 94
2.0883609542556001  -18.9804407197058609 360.4079971999661893 0.1735160282945347 12.0000000000000089 95
2.1102682724472550  -18.9836926929388561 360.5199634818803247 0.1729550452819562 11.9999999999999911 96
2.1321798261933971  -18.9866970959715999 360.6234685792428536 0.1724333101538271 11.9999999999999858 97
2.1540953254522224  -18.9894737173957395 360.7191826293354211 0.1719479118454595 11.9999999999999982 98
2.1760145008671019  -18.9920406877346828 360.8077202472060208 0.1714961682053606 12.0000000000000071 99
2.1979371022584746  -18.9944146238267955 360.8896452929091652 0.1710756071413118 12.0000000000000071 100
2.2198628972231091  -18.9966107603706718 360.9654752228101415 0.1706839493485718 12.0000000000000107 101
2.2417916698341145  -18.9986430697618545 361.0356850604775900 0.1703190924919223 11.9999999999999947 102
2.2637232194352674  -19.0005243712572707 361.1007110199486760 0.1699790967221085 12.0000000000000000 103
2.2856573595234644  -19.0022664304179862 361.1609538115678788 0.1696621714158060 12.0000000000000107 104
2.3075939167133326  -19.0038800497010669 361.2167816581620627 0.1693666630365244 12.0000000000000018 105
2.3295327297783324  -19.0053751509956186 361.2685330470093277 0.1690910440217271 11.9999999999999964 106
2.3514736487629975  -19.0067608508288366 361.3165192409310862 0.1688339026089069 11.9999999999999947 107
2.3734165341612203  -19.0080455289048871 361.3610265698414423 0.1685939335203752 12.0000000000000000 108
2.3953612561558191  -19.0092368905790750 361.4023185222559960 0.1683699294330837 12.0000000000000178 109
2.4173076939149065  -19.0103420238170138 361.4406376545481976 0.1681607731659140 11.9999999999999929 110
2.4392557349408688  -19.0113674511383657 361.4762073342053554 0.1679654305225562 11.9999999999999929 111
2.4612052744680586  -19.0123191769988509 361.5092333318500550 0.1677829437333377 11.9999999999999929 112
2.4831562149055326  -19.0132027310242187 361.5399052755419120 0.1676124254442373 11.9999999999999911 113
2.5051084653214697  -19.0140232074708813 361.5683979796014569 0.1674530532057686 12.0000000000000071 114
2.5270619409661004  -19.0147853012540793 361.5948726591477680 0.1673040644185347 12.0000000000000036 115
2.5490165628302410  -19.0154933408530731 361.6194780405069196 0.1671647516960228 12.0000000000000107 116
2.5709722572367215  -19.0161513183743764 361.6423513767286408 0.1670344586086550 12.0000000000000000 117
2.5929289554621899  -19.0167629170283092 361.6636193766440215 0.1669125757762839 12.0000000000000000 118
2.6148865933869931  -19.0173315362502571 361.6833990550873636 0.1667985372791942 12.0000000000000000 119
2.6368451111709765  -19.0178603146774279 361.7017985112585166 0.1666918173603270 11.9999999999999982 120
2.6588044529532224  -19.0183521511717686 361.7189176415416796 0.1665919273938365 12.0000000000000000 121
2.6807645665739064  -19.0188097240627592 361.7348487925357290 0.1664984130972967 11.9999999999999929 122
2.7027254033165726  -19.0192355087675899 361.7496773595333934 0.1664108519668693 12.0000000000000000 123
2.7246869176692821  -19.0196317939314348 361.7634823352021272 0.1663288509165707 12.0000000000000071 124
2.7466490671031751  -19.0200006962188901 361.7763368128009915 0.1662520441044396 12.0000000000000000 125
2.7686118118671565  -19.0203441738734682 361.7883084478820592 0.1661800909299165 12.0000000000000071 126
2.7905751147974303  -19.0206640391538286 361.7994598820428109 0.1661126741881201 12.0000000000000071 127
2.8125389411408177  -19.0209619697431300 361.8098491320142784 0.1660494983679682 12.0000000000000018 128
2.8345032583907588  -19.0212395192218295 361.8195299470502846 0.1659902880822214 11.9999999999999929 129
2.8564680361350825  -19.0214981266832517 361.8285521373183542 0.1659347866185722 11.9999999999999964 130
2.8784332459146400  -19.0217391255665120 361.8369618757693047 0.1658827546018435 12.0000000000000000 131
2.9003988610919862  -19.0219637517735372 361.8448019757279894 0.1658339687582238 12.0000000000000000 132
2.9223648567293750  -19.0221731511305521 361.8521121462515566 0.1657882207732445 11.9999999999999929 133
2.9443312094753429  -19.0223683862507826 361.8589292271318527 0.1657453162359230 11.9999999999999964 134
2.9662978974592846  -19.0225504428474217 361.8652874052358470 0.1657050736621355 12.0000000000000018 135
2.9882649001933839  -19.0227202355446110 361.8712184137448276 0.1656673235908863 11.9999999999999929 136
3.0102321984813947  -19.0228786132271885 361.8767517157162956 0.1656319077476658 11.9999999999999964 137
3.0321997743337490  -19.0230263639684374 361.8819146732490708 0.1655986782695883 12.0000000000000000 138
3.0541676108885336  -19.0231642195704111 361.8867327034552090 0.1655674969874447 11.9999999999999982 139
3.0761356923379020  -19.0232928597491231 361.8912294223052868 0.1655382347602123 11.9999999999999929 140
3.0981040038595391  -19.0234129159936423 361.8954267773444258 0.1655107708579358 12.0000000000000036 141
3.1200725315528079  -19.0235249751254898 361.8993451701751951 0.1654849923892305 12.0000000000000000 142
3.1420412623792218  -19.0236295825837161 361.9030035695478773 0.1654607937699746 12.0000000000000036 143
3.1640101841069734  -19.0237272454565876 361.9064196157991091 0.1654380762300285 12.0000000000000000 144
3.1859792852591822  -19.0238184352815836 361.9096097173431303 0.1654167473550883 12.0000000000000071 145
3.2079485550656379  -19.0239035906314200 361.9125891398492740 0.1653967206610071 12.0000000000000071 146
3.2299179834177618  -19.0239831195037681 361.9153720886789642 0.1653779151981407 12.0000000000000000 147
3.2518875608265754  -19.0240574015301327 361.9179717851279179 0.1653602551834624 12.0000000000000000 148
3.2738572783834559  -19.0241267900183146 361.9204005369508650 0.1653436696583808 11.9999999999999982 149
3.2958271277235003  -19.0241916138412641 361.9226698036233074 0.1653280921703514 12.0000000000000036 150
3.3177971009912857  -19.0242521791850905 361.9247902567520896 0.1653134604765275 11.9999999999999964 151
3.3397671908088875  -19.0243087711666377 361.9267718360080153 0.1652997162678353 12.0000000000000036 152
3.3617373902459966  -19.0243616553309387 361.9286238009309500 0.1652868049119785 11.9999999999999964 153
3.3837076927919654  -19.0244110790382805 361.9303547789274944 0.1652746752140027 11.9999999999999947 154
3.4056780923296888  -19.0244572727486876 361.9319728097455027 0.1652632791931460 12.0000000000000036 155
3.4276485831111643  -19.0245004512124893 361.9334853867072752 0.1652525718748094 11.9999999999999929 156
3.4496191597346293  -19.0245408145736548 361.9348994949406233 0.1652425110965643 12.0000000000000036 157
3.4715898171231712  -19.0245785493927144 361.9362216468350084 0.1652330573271967 11.9999999999999982 158
3.4935605505047054  -19.0246138295955411 361.9374579149360898 0.1652241734978679 11.9999999999999964 159
3.5155313553932306  -19.0246468173532648 361.9386139624740508 0.1652158248445355 12.0000000000000018 160
3.5375022275712804  -19.0246776638988528 361.9396950716952688 0.1652079787608452 11.9999999999999929 161
3.5594731630734882  -19.0247065102849788 361.9407061701693920 0.1652006046607647 11.9999999999999982 162
3.5814441581711813  -19.0247334880875947 361.9416518552192770 0.1651936738502792 12.0000000000000036 163
3.6034152093579648  -19.0247587200590935 361.9425364166092436 0.1651871594075241 12.0000000000000071 164
3.6253863133361981  -19.0247823207351665 361.9433638576321641 0.1651810360707730 11.9999999999999964 165
3.6473574670043161  -19.0248043969985616 361.9441379146986719 0.1651752801337439 12.0000000000000107 166
3.6693286674449612  -19.0248250486026755 361.9448620755466663 0.1651698693477185 11.9999999999999964 167
3.6912999119138332  -19.0248443686586342 361.9455395961765589 0.1651647828300210 11.9999999999999964 168
3.7132711978292510  -19.0248624440876171 361.9461735165916707 0.1651600009784150 12.0000000000000071 169
3.7352425227623471  -19.0248793560418363 361.9467666754400170 0.1651555053910265 12.0000000000000036 170
3.7572138844278786  -19.0248951802958892 361.9473217236433698 0.1651512787914202 11.9999999999999964 171
3.7791852806755970  -19.0249099876108367 361.9478411370666890 0.1651473049584826 12.0000000000000000 172
3.8011567094821581  -19.0249238440728483 361.9483272283158612 0.1651435686607920 12.0000000000000000 173
3.8231281689435219  -19.0249368114085016 361.9487821577187106 0.1651400555951791 12.0000000000000071 174
3.8450996572678218  -19.0249489472781015 361.9492079435477194 0.1651367523291978 12.0000000000000071 175
3.8670711727686644  -19.0249603055488699 361.9496064715376633 0.1651336462472515 11.9999999999999929 176
3.8890427138588421  -19.0249709365493231 361.9499795037536387 0.1651307255001318 11.9999999999999964 177
3.9110142790444331  -19.0249808873059116 361.9503286868441023 0.1651279789577468 11.9999999999999982 178
3.9329858669192475  -19.0249902017637957 361.9506555597384363 0.1651253961648325 12.0000000000000089 179
3.9549574761596258  -19.0249989209922141 361.9509615608134254 0.1651229672994492 11.9999999999999982 180
3.9769291055195302  -19.0250070833761491 361.9512480345753147 0.1651206831340883 12.0000000000000142 181
3.9989007538259620  -19.0250147247944881 361.9515162378833111 0.1651185349992113 12.0000000000000000 182
4.0208724199746255  -19.0250218787866316 361.9517673457601745 0.1651165147490755 12.0000000000000036 183
4.0428441029258710  -19.0250285767073066 361.9520024568008125 0.1651146147296880 11.9999999999999964 184
4.0648158017008766  -19.0250348478712432 361.9522225982180998 0.1651128277487603 11.9999999999999929 185
4.0867875153780622  -19.0250407196878442 361.9524287305524695 0.1651111470475299 12.0000000000000000 186
4.1087592430897111  -19.0250462177868904 361.9526217520625551 0.1651095662743322 12.0000000000000071 187
4.1307309840187969  -19.0250513661358802 361.9528025028173488 0.1651080794598109 12.0000000000000036 188
4.1527027373960070  -19.0250561871492394 361.9529717685230139 0.1651066809936619 11.9999999999999929 189
4.1746745024969263  -19.0250607017905615 361.9531302840827038 0.1651053656028159 11.9999999999999964 190
4.1966462786394123  -19.0250649296675043 361.9532787369289508 0.1651041283309643 11.9999999999999929 191
