 # inv_tmp, energy, phys_var, phys_doublon, phys_num, step_i
0.0377874124997084  -0.9276779672446265 13.6341776295250625 0.8876042714757932 8.0000000000000000 1
0.0748876165545761  -1.4133703812686651 15.1978766002642978 0.8834610857626670 8.0000000000000000 2
0.1112962289666198  -1.9101823638564905 17.2326954060106274 0.8766849757586741 8.0000000000000000 3
0.1470151504547796  -2.4161603430166099 19.7552964494777044 0.8672159522951475 8.0000000000000000 4
0.1820527336449803  -2.9291394849413703 22.7716469175290896 0.8550355691383308 8.0000000000000000 5
0.2164241250332094  -3.4466836733596420 26.2758384834884495 0.8401664926328918 7.9999999999999991 6
0.2501516224918931  -3.9660571478152620 30.2494202052821564 0.8226730580669421 8.0000000000000000 7
0.2832648330803123  -4.4842441824171768 34.6614218737355699 0.8026627053852418 7.9999999999999991 8
0.3158004306047829  -4.9980223444552383 39.4691801944969143 0.7802875907197001 7.9999999999999991 9
0.3478013955142847  -5.5040820938240698 44.6199674912892732 0.7557453170453498 8.0000000000000000 10
0.3793157435806499  -5.9991744933264846 50.0532905634736238 0.7292777201671139 7.9999999999999982 11
0.4103948725260468  -6.4802628070767962 55.7036153850763327 0.7011669672338170 7.9999999999999982 12
0.4410917380828480  -6.9446542639992801 61.5032156474280853 0.6717287506422450 8.0000000000000000 13
0.4714590913542704  -7.3900945245742378 67.3848542153650101 0.6413029176174262 8.0000000000000000 14
0.5015479701323731  -7.8148168999310919 73.2840763808949305 0.6102423113304185 8.0000000000000000 15
0.5314065595786411  -8.2175479831735601 79.1409944324859538 0.5789008280675034 8.0000000000000000 16
0.5610794514925835  -8.5974785024709046 84.9015420660747679 0.5476217114436146 8.0000000000000000 17
0.5906072609983655  -8.9542116687583899 90.5182502529101498 0.5167269611387856 8.0000000000000018 18
0.6200265181233037  -9.2877012341639880 95.9506335716352368 0.4865085033571825 7.9999999999999991 19
0.6493697404683278  -9.5981889934567235 101.1652814440727042 0.4572215173210057 8.0000000000000000 20
0.6786656045341386  -9.8861479341219436 106.1357337736207427 0.4290800778568331 8.0000000000000000 21
0.7079391565180781  -10.1522338394293996 110.8421981240366279 0.4022550777330796 8.0000000000000000 22
0.7372120287373023  -10.3972455777598434 115.2711455564840151 0.3768742401728796 8.0000000000000000 23
0.7665026487069209  -10.6220928016039107 119.4148094055988167 0.3530239213871364 8.0000000000000000 24
0.7958264414215306  -10.8277692189875037 123.2706060898071172 0.3307523332336116 8.0000000000000000 25
0.8251960315813672  -11.0153297033550022 126.8404973052894178 0.3100737850118485 8.0000000000000018 26
0.8546214530986931  -11.1858699593912423 130.1303155591259326 0.2909735474703036 8.0000000000000000 27
0.8841103705179567  -11.3405080037601600 133.1490772976740118 0.2734129756564688 8.0000000000000000 28
0.9136683130759023  -11.4803671857028586 135.9083082804014850 0.2573345824234013 8.0000000000000000 29
0.9432989185039338  -11.6065607868602569 138.4214038511493641 0.2426668221241650 8.0000000000000000 30
0.9730041811432036  -11.7201783934318335 140.7030427167364053 0.2293284153482186 8.0000000000000000 31
1.0027846977445121  -11.8222742568273826 142.7686675481862153 0.2172321129814950 8.0000000000000000 32
1.0326399043245407  -11.9138577965096264 144.6340400576820002 0.2062878561173320 8.0000000000000018 33
1.0625682983223852  -11.9958862948955343 146.3148729206013456 0.1964053345304873 8.0000000000000018 34
1.0925676416758450  -12.0692597234802239 147.8265365051606750 0.1874959798088831 7.9999999999999982 35
1.1226351419897540  -12.1348175440040968 149.1838350816350101 0.1794744506669582 8.0000000000000000 36
1.1527676104580538  -12.1933372595331662 150.4008450348682970 0.1722596792646016 8.0000000000000000 37
1.1829615964784446  -12.2455344503525723 151.4908064792379889 0.1657755507742009 8.0000000000000000 38
1.2132134998933950  -12.2920640158173740 152.4660593784973344 0.1599512862333899 8.0000000000000000 39
1.2435196624925164  -12.3335223503001430 153.3380155844595265 0.1547215929005552 7.9999999999999964 40
1.2738764408443142  -12.3704502028871168 154.1171589211451760 0.1500266385242672 8.0000000000000000 41
1.3042802627349688  -12.4033360006988715 154.8130663798231410 0.1458118973689622 7.9999999999999991 42
1.3347276695293266  -12.4326194498737763 155.4344445200610494 0.1420279073533799 8.0000000000000000 43
1.3652153466839609  -12.4586952628005250 155.9891761961965244 0.1386299697872206 7.9999999999999973 44
1.3957401444768227  -12.4819168927289645 156.4843736852206177 0.1355778162248117 7.9999999999999991 45
1.4262990908071556  -12.5026001860075215 156.9264351455255735 0.1328352610078301 8.0000000000000036 46
1.4568893976890098  -12.5210268872211277 157.3211020708660612 0.1303698531419903 7.9999999999999991 47
1.4875084628304533  -12.5374479532908119 157.6735160183836797 0.1281525371741653 7.9999999999999982 48
1.5181538674705901  -12.5520866493451546 157.9882733904773886 0.1261573295985623 8.0000000000000018 49
1.5488233714451249  -12.5651414122807985 158.2694774492769909 0.1243610149008900 7.9999999999999982 50
1.5795149062721539  -12.5767884778829604 158.5207870532305492 0.1227428635258443 7.9999999999999982 51
1.6102265668942661  -12.5871842746891289 158.7454618419110375 0.1212843727125841 8.0000000000000000 52
1.6409566025803646  -12.5964675929378984 158.9464037709083186 0.1199690301853232 7.9999999999999982 53
1.6717034073793078  -12.6047615403914204 159.1261950255369868 0.1187821000266584 8.0000000000000000 54
1.7024655104254147  -12.6121752989363269 159.2871324304259986 0.1177104296293202 8.0000000000000000 55
1.7332415663207024  -12.6188056969761053 159.4312585305719949 0.1167422763605395 8.0000000000000018 56
1.7640303457581001  -12.6247386129902317 159.5603895552969220 0.1158671524367892 7.9999999999999982 57
1.7948307265015437  -12.6300502254635489 159.6761404955392152 0.1150756864598093 8.0000000000000018 58
1.8256416848008139  -12.6348081238484369 159.7799475316085989 0.1143595000802901 7.9999999999999982 59
1.8564622872893692  -12.6390722944405560 159.8730880465315067 0.1137110983127337 8.0000000000000000 60
1.8872916833907496  -12.6428959941221812 159.9566984521536028 0.1131237721084631 8.0000000000000000 61
1.9181290982420176  -12.6463265239274563 160.0317900433458931 0.1125915118922561 7.9999999999999982 62
1.9489738261300360  -12.6494059133625498 160.0992630815204336 0.1121089308735845 8.0000000000000000 63
1.9798252244272874  -12.6521715254067963 160.1599192933509244 0.1116711970502817 8.0000000000000018 64
2.0106827080075664  -12.6546565911536035 160.2144729549216891 0.1112739729268480 8.0000000000000018 65
2.0415457441177005  -12.6568906821369076 160.2635607160596294 0.1109133620690258 7.9999999999999982 66
2.0724138476788907  -12.6589001275398640 160.3077503047262553 0.1105858617092854 8.0000000000000018 67
2.1032865769899907  -12.6607083827013920 160.3475482372932106 0.1102883207036464 8.0000000000000000 68
2.1341635298046500  -12.6623363546240526 160.3834066474468045 0.1100179022185607 7.9999999999999982 69
2.1650443397545920  -12.6638026895416935 160.4157293344122763 0.1097720505974326 8.0000000000000000 70
2.1959286730920842  -12.6651240270249748 160.4448771201938087 0.1095484619200544 8.0000000000000000 71
2.2268162257257886  -12.6663152245829878 160.4711725955510815 0.1093450578251803 7.9999999999999991 72
2.2577067205255439  -12.6673895562548751 160.4949043254397338 0.1091599622171667 7.9999999999999991 73
2.2885999048730836  -12.6683588882729872 160.5163305765781274 0.1089914805225834 8.0000000000000000 74
2.3194955484372506  -12.6692338345127649 160.5356826225863927 0.1088380812024917 8.0000000000000000 75
2.3503934411537903  -12.6700238941206216 160.5531676757169635 0.1086983792612089 7.9999999999999982 76
2.3812933913913370  -12.6707375734248373 160.5689714884804289 0.1085711215233258 7.9999999999999982 77
2.4121952242866751  -12.6713824939818966 160.5832606634033368 0.1084551734779752 8.0000000000000018 78
2.4430987802337421  -12.6719654883882598 160.5961847046647506 0.1083495075132893 8.0000000000000018 79
2.4740039135121856  -12.6724926852917594 160.6078778413916552 0.1082531923850091 8.0000000000000000 80
2.5049104910425086  -12.6729695848644361 160.6184606488869235 0.1081653837816719 7.9999999999999991 81
2.5358183912559964  -12.6734011258473558 160.6280414909714693 0.1080853158650082 7.9999999999999991 82
2.5667275030686896  -12.6737917451448325 160.6367178038947259 0.1080122936784030 8.0000000000000018 83
2.5976377249496432  -12.6741454308286094 160.6445772398636223 0.1079456863287617 8.0000000000000000 84
2.6285489640746293  -12.6744657693100518 160.6516986861239502 0.1078849208580887 8.0000000000000000 85
2.6594611355572448  -12.6747559873479094 160.6581531736602528 0.1078294767307091 7.9999999999999982 86
2.6903741617501686  -12.6750189894805665 160.6640046879407748 0.1077788808705364 8.0000000000000036 87
2.7212879716099740  -12.6752573914015212 160.6693108926843365 0.1077327031902237 8.0000000000000018 88
2.7522025001195436  -12.6754735497364184 160.6741237763550316 0.1076905525605919 8.0000000000000018 89
2.7831176877627000  -12.6756695886255866 160.6784902299656324 0.1076520731744876 8.0000000000000018 90
2.8140334800461599  -12.6758474234693814 160.6824525637824195 0.1076169412643151 8.0000000000000000 91
2.8449498270644260  -12.6760087821517828 160.6860489696551895 0.1075848621369620 7.9999999999999982 92
2.8758666831036033  -12.6761552240213327 160.6893139349230353 0.1075555674938025 8.0000000000000018 93
2.9067840062805481  -12.6762881568762822 160.6922786131747785 0.1075288130069583 8.0000000000000000 94
2.9377017582140779  -12.6764088521725959 160.6949711565402765 0.1075043761260915 8.0000000000000000 95
2.9686199037252949  -12.6765184586483795 160.6974170136640510 0.1074820540927446 7.9999999999999982 96
2.9995384105643428  -12.6766180145365119 160.6996391970461104 0.1074616621416734 8.0000000000000018 97
3.0304572491611985  -12.6767084585175844 160.7016585230218766 0.1074430318707695 8.0000000000000018 98
3.0613763923982811  -12.6767906395485319 160.7034938272925615 0.1074260097630888 8.0000000000000018 99
3.0922958154029274  -12.6768653256868049 160.7051621585899852 0.1074104558462006 7.9999999999999982 100
3.1232154953579130  -12.6769332120168876 160.7066789527817150 0.1073962424755879 8.0000000000000000 101
3.1541354113284128  -12.6769949277739613 160.7080581894629745 0.1073832532301795 8.0000000000000000 102
3.1850555441039079  -12.6770510427492731 160.7093125328653969 0.1073713819092991 8.0000000000000018 103
3.2159758760537192  -12.6771020730522412 160.7104534587080593 0.1073605316213884 7.9999999999999991 104
3.2468963909949426  -12.6771484862964527 160.7114913684456781 0.1073506139558252 8.0000000000000018 105
3.2778170740716948  -12.6771907062691085 160.7124356922080608 0.1073415482300128 8.0000000000000000 106
3.3087379116446547  -12.6772291171373830 160.7132949815920142 0.1073332608046891 7.9999999999999991 107
3.3396588911900196  -12.6772640672391468 160.7140769933370166 0.1073256844610907 7.9999999999999982 108
3.3705800012070233  -12.6772958725005758 160.7147887648128517 0.1073187578342260 8.0000000000000018 109
3.4015012311332864  -12.6773248195186010 160.7154366821443432 0.1073124248970668 8.0000000000000000 110
3.4324225712673071  -12.6773511683422768 160.7160265417169853 0.1073066344909659 8.0000000000000000 111
3.4633440126974802  -12.6773751549832578 160.7165636057244456 0.1073013398980549 8.0000000000000000 112
3.4942655472370681  -12.6773969936827626 160.7170526523542549 0.1072964984517827 8.0000000000000000 113
3.5251871673646304  -12.6774168789593347 160.7174980211446496 0.1072920711821158 8.0000000000000018 114
3.5561088661694211  -12.6774349874592005 160.7179036539905042 0.1072880224922492 8.0000000000000036 115
3.5870306373013432  -12.6774514796289175 160.7182731322277505 0.1072843198639737 7.9999999999999982 116
3.6179524749250627  -12.6774665012278138 160.7186097101829318 0.1072809335891090 8.0000000000000018 117
3.6488743736779412  -12.6774801846959733 160.7189163455314826 0.1072778365246537 7.9999999999999982 118
3.6797963286314443  -12.6774926503920771 160.7191957267801286 0.1072750038695223 7.9999999999999991 119
3.7107183352557453  -12.6775040077136527 160.7194502981492406 0.1072724129609320 8.0000000000000000 120
3.7416403893872530  -12.6775143561113133 160.7196822821099431 0.1072700430886828 8.0000000000000000 121
3.7725624871988135  -12.6775237860072671 160.7198936998013323 0.1072678753257355 8.0000000000000000 122
3.8034846251723615  -12.6775323796272978 160.7200863895327529 0.1072658923736334 8.0000000000000036 123
3.8344068000738223  -12.6775402117546214 160.7202620235535733 0.1072640784214523 7.9999999999999982 124
3.8653290089300687  -12.6775473504131426 160.7204221232587429 0.1072624190170770 7.9999999999999982 125
3.8962512490077650  -12.6775538574868136 160.7205680729764765 0.1072609009497132 8.0000000000000000 126
3.9271735177939475  -12.6775597892812470 160.7207011324757104 0.1072595121426431 8.0000000000000018 127
3.9580958129781796  -12.6775651970331182 160.7208224483129015 0.1072582415553208 8.0000000000000018 128
3.9890181324361729  -12.6775701273722383 160.7209330641292411 0.1072570790939845 8.0000000000000018 129
4.0199404742147387  -12.6775746227408561 160.7210339299964801 0.1072560155300372 8.0000000000000018 130
4.0508628365179629  -12.6775787217741787 160.7211259109015487 0.1072550424255131 7.9999999999999973 131
4.0817852176945104  -12.6775824596458087 160.7212097944508855 0.1072541520650104 8.0000000000000000 132
4.1127076162259515  -12.6775858683813532 160.7212862978664987 0.1072533373935207 8.0000000000000018 133
4.1436300307160492  -12.6775889771432269 160.7213560743416281 0.1072525919596432 7.9999999999999991 134
4.1745524598808972  -12.6775918124893572 160.7214197188147295 0.1072519098637119 8.0000000000000000 135
4.2054749025398728  -12.6775943986081376 160.7214777732156961 0.1072512857104055 7.9999999999999982 136
4.2363973576073173  -12.6775967575319619 160.7215307312339121 0.1072507145654522 7.9999999999999991 137
4.2673198240848818  -12.6775989093312518 160.7215790426522517 0.1072501919160714 8.0000000000000000 138
4.2982423010545041  -12.6776008722907942 160.7216231172868675 0.1072497136348272 8.0000000000000000 139
4.3291647876719423  -12.6776026630700684 160.7216633285697753 0.1072492759465981 7.9999999999999991 140
4.3600872831608370  -12.6776042968489939 160.7217000168065510 0.1072488753983922 7.9999999999999991 141
4.3910097868072500  -12.6776057874604327 160.7217334921385259 0.1072485088317602 7.9999999999999982 142
4.4219322979546432  -12.6776071475107788 160.7217640372388701 0.1072481733575829 8.0000000000000018 143
4.4528548159992658  -12.6776083884895066 160.7217919097631693 0.1072478663330256 7.9999999999999973 144
4.4837773403859034  -12.6776095208689945 160.7218173445814386 0.1072475853404744 8.0000000000000000 145
4.5146998706039865  -12.6776105541951871 160.7218405558070344 0.1072473281682803 8.0000000000000018 146
4.5456224061839903  -12.6776114971701688 160.7218617386444635 0.1072470927931572 8.0000000000000000 147
4.5765449466941481  -12.6776123577273303 160.7218810710711523 0.1072468773640901 8.0000000000000000 148
4.6074674917374061  -12.6776131430997268 160.7218987153673879 0.1072466801876233 7.9999999999999982 149
4.6383900409486403  -12.6776138598823351 160.7219148195104310 0.1072464997144096 8.0000000000000000 150
4.6693125939920925  -12.6776145140886776 160.7219295184427779 0.1072463345269123 8.0000000000000000 151
4.7002351505590019  -12.6776151112024813 160.7219429352277587 0.1072461833281602 8.0000000000000000 152
4.7311577103654487  -12.6776156562245887 160.7219551821012828 0.1072460449314656 7.9999999999999982 153
4.7620802731503442  -12.6776161537157854 160.7219663614305603 0.1072459182510215 8.0000000000000018 154
4.7930028386736110  -12.6776166078357022 160.7219765665859654 0.1072458022933038 8.0000000000000000 155
4.8239254067144817  -12.6776170223783531 160.7219858827369876 0.1072456961492084 7.9999999999999991 156
4.8548479770699569  -12.6776174008044222 160.7219943875759327 0.1072455989868600 7.9999999999999991 157
4.8857705495533708  -12.6776177462707267 160.7220021519780460 0.1072455100450363 8.0000000000000000 158
4.9166931239930847  -12.6776180616570127 160.7220092406024037 0.1072454286271521 8.0000000000000000 159
4.9476157002312746  -12.6776183495904373 160.7220157124402249 0.1072453540957594 8.0000000000000000 160
4.9785382781228220  -12.6776186124677999 160.7220216213138997 0.1072452858675145 8.0000000000000018 161
5.0094608575342958  -12.6776188524758506 160.7220270163317650 0.1072452234085763 7.9999999999999964 162
5.0403834383430075  -12.6776190716098238 160.7220319423036869 0.1072451662303961 7.9999999999999982 163
5.0713060204361540  -12.6776192716902187 160.7220364401180461 0.1072451138858672 8.0000000000000018 164
5.1022286037100173  -12.6776194543782168 160.7220405470869764 0.1072450659658017 8.0000000000000018 165
5.1331511880692364  -12.6776196211896917 160.7220442972602541 0.1072450220957082 8.0000000000000000 166
5.1640737734261357  -12.6776197735079421 160.7220477217119310 0.1072449819328444 7.9999999999999991 167
5.1949963597001059  -12.6776199125953628 160.7220508488012456 0.1072449451635196 7.9999999999999982 168
5.2259189468170355  -12.6776200396040490 160.7220537044109392 0.1072449115006279 7.9999999999999991 169
5.2568415347087898  -12.6776201555854549 160.7220563121639714 0.1072448806813908 8.0000000000000000 170
5.2877641233127264  -12.6776202614992357 160.7220586936219888 0.1072448524652921 8.0000000000000018 171
5.3186867125712602  -12.6776203582212865 160.7220608684654906 0.1072448266321885 8.0000000000000018 172
5.3496093024314462  -12.6776204465510851 160.7220628546588159 0.1072448029805809 8.0000000000000000 173
5.3805318928446146  -12.6776205272183802 160.7220646686001260 0.1072447813260326 8.0000000000000000 174
5.4114544837660219  -12.6776206008892913 160.7220663252585666 0.1072447614997220 8.0000000000000000 175
5.4423770751545391  -12.6776206681718762 160.7220678382989263 0.1072447433471188 8.0000000000000000 176
5.4732996669723537  -12.6776207296212160 160.7220692201960333 0.1072447267267715 8.0000000000000018 177
5.5042222591847105  -12.6776207857440255 160.7220704823382391 0.1072447115091993 7.9999999999999991 178
5.5351448517596609  -12.6776208370029124 160.7220716351229157 0.1072446975758771 8.0000000000000000 179
5.5660674446678335  -12.6776208838201931 160.7220726880423456 0.1072446848183072 7.9999999999999982 180
5.5969900378822350  -12.6776209265814508 160.7220736497632743 0.1072446731371699 7.9999999999999982 181
5.6279126313780514  -12.6776209656387078 160.7220745281984478 0.1072446624415455 8.0000000000000000 182
5.6588352251324761  -12.6776210013133532 160.7220753305726078 0.1072446526482032 7.9999999999999982 183
5.6897578191245426  -12.6776210338988555 160.7220760634825751 0.1072446436809498 7.9999999999999991 184
5.7206804133349838  -12.6776210636631550 160.7220767329518196 0.1072446354700338 8.0000000000000000 185
5.7516030077460911  -12.6776210908508986 160.7220773444803399 0.1072446279515999 8.0000000000000000 186
5.7825256023415852  -12.6776211156854792 160.7220779030904509 0.1072446210671904 7.9999999999999982 187
5.8134481971065073  -12.6776211383708954 160.7220784133684219 0.1072446147632876 8.0000000000000000 188
5.8443707920271084  -12.6776211590934089 160.7220788795021349 0.1072446089908965 8.0000000000000018 189
5.8752933870907524  -12.6776211780231094 160.7220793053158445 0.1072446037051615 7.9999999999999964 190
5.9062159822858264  -12.6776211953153428 160.7220796943023799 0.1072445988650168 8.0000000000000018 191
5.9371385776016581  -12.6776212111119424 160.7220800496508559 0.1072445944328651 7.9999999999999991 192
5.9680611730284401  -12.6776212255424525 160.7220803742742419 0.1072445903742853 8.0000000000000000 193
