 # inv_tmp, energy, phys_var, phys_doublon, phys_num, step_i
0.0408624600495975  -0.9446792379231788 13.2718058054211490 0.8880772062130418 7.9999999999999982 1
0.0808866844346535  -1.4518971565895940 14.7146542448206432 0.8805086542513684 8.0000000000000018 2
0.1200921066999996  -1.9616516428387278 16.5381797939522386 0.8707213435578605 8.0000000000000000 3
0.1585159575149267  -2.4681050754570091 18.7205714196839992 0.8590079748640156 8.0000000000000000 4
0.1962102902585637  -2.9657265519668385 21.2284759037700752 0.8457012372497372 8.0000000000000000 5
0.2332376779504036  -3.4496633024777261 24.0206467608082335 0.8311411251642671 8.0000000000000000 6
0.2696662241089283  -3.9160308127608805 27.0523415999524843 0.8156434109619873 8.0000000000000018 7
0.3055645803481656  -4.3620898134506314 30.2797533382277066 0.7994738973504159 7.9999999999999991 8
0.3409975599153317  -4.7863014752050645 33.6638324594612257 0.7828314141533141 8.0000000000000000 9
0.3760227374903996  -5.1882729578570430 37.1730580490177545 0.7658404962544370 8.0000000000000018 10
0.4106882052451814  -5.5686190132145832 40.7849628413145240 0.7485529259291479 8.0000000000000000 11
0.4450314720185671  -5.9287702308808807 44.4864370005240062 0.7309562282296129 8.0000000000000000 12
0.4790793749706328  -6.2707562845797291 48.2729836254110225 0.7129868367680857 8.0000000000000000 13
0.5128488210616997  -6.5969861879264871 52.1471688303442420 0.6945458266507322 8.0000000000000000 14
0.5463481711795759  -6.9100401219051202 56.1165187140548625 0.6755155740635950 8.0000000000000000 15
0.5795790989680415  -7.2124810176505534 60.1910923931563531 0.6557762039924299 8.0000000000000018 16
0.6125387785593156  -7.5066898457720876 64.3809297737024337 0.6352210692600972 7.9999999999999991 17
0.6452222669668919  -7.7947266284398946 68.6935508255772902 0.6137707017284714 8.0000000000000000 18
0.6776249429367903  -8.0782190739762765 73.1316747666308089 0.5913847054079957 8.0000000000000000 19
0.7097448477666246  -8.3582816076357620 77.6913280563233855 0.5680709899415030 7.9999999999999982 20
0.7415847546353035  -8.6354684848595085 82.3605081795632259 0.5438916673538784 8.0000000000000000 21
0.7731537847138119  -8.9097647452982400 87.1185522559138974 0.5189649526744914 8.0000000000000000 22
0.8044684038693702  -9.1806173850296950 91.9363145133665398 0.4934625931702225 8.0000000000000000 23
0.8355526812770769  -9.4470061260957898 96.7771810377254980 0.4676027255628204 8.0000000000000000 24
0.8664377697736930  -9.7075489369070560 101.5988510532594091 0.4416385851110072 8.0000000000000000 25
0.8971606656857852  -9.9606329043097936 106.3557089904923032 0.4158440620741969 7.9999999999999982 26
0.9277624030869964  -10.2045573525320101 111.0015246508058766 0.3904975810331490 8.0000000000000000 27
0.9582859115240132  -10.4376743167811039 115.4921723353599532 0.3658660361866874 7.9999999999999982 28
0.9887737998779436  -10.6585121967831746 119.7880667970827346 0.3421904748512010 8.0000000000000000 29
1.0192663158993709  -10.8658715235357821 123.8560727986740346 0.3196748882402528 8.0000000000000000 30
1.0497996774299638  -11.0588865027882974 127.6707405422672537 0.2984789289075318 8.0000000000000000 31
1.0804048933293471  -11.2370512158449216 131.2148277068958180 0.2787147608848969 7.9999999999999982 32
1.1111071091174931  -11.4002139473494069 134.4791665616939156 0.2604476958345891 8.0000000000000000 33
1.1419254411426938  -11.5485462973434068 137.4620046086791945 0.2436998729590117 8.0000000000000000 34
1.1728732139387426  -11.6824952331599583 140.1679824596520803 0.2284560417679628 7.9999999999999991 35
1.2039584911197321  -11.8027261995029207 142.6069155522735628 0.2146704916972357 8.0000000000000018 36
1.2351847875423210  -11.9100642643435570 144.7925253566464221 0.2022742928701448 7.9999999999999982 37
1.2665518631784602  -12.0054385528872825 146.7412315536548419 0.1911822076313141 8.0000000000000000 38
1.2980565201578957  -12.0898333691294653 148.4710788899215004 0.1812988482780832 8.0000000000000000 39
1.3296933478111763  -12.1642477430521385 150.0008378940516138 0.1725238536589464 8.0000000000000000 40
1.3614553821793376  -12.2296638386630327 151.3492911257407627 0.1647560146547697 8.0000000000000000 41
1.3933346641475461  -12.2870237577789059 152.5346972746538654 0.1578963894343310 8.0000000000000000 42
1.4253226933894150  -12.3372137403440547 153.5744136475784671 0.1518505170694832 8.0000000000000000 43
1.4574107839297414  -12.3810545182862377 154.4846519093705695 0.1465298709589511 8.0000000000000000 44
1.4895903321004971  -12.4192965411432503 155.2803406529271797 0.1418527013383791 8.0000000000000000 45
1.5218530098914442  -12.4526188810852911 155.9750698798141286 0.1377444079739539 8.0000000000000000 46
1.5541908970474287  -12.4816307820206198 156.5810955075392030 0.1341375671747205 7.9999999999999991 47
1.5865965644548961  -12.5068749994315844 157.1093856706467022 0.1309717167108442 8.0000000000000000 48
1.6190631199289713  -12.5288322572002464 157.5696942598370924 0.1281929814671436 8.0000000000000000 49
1.6515842258329674  -12.5479263097015554 157.9706505065295232 0.1257536036386583 8.0000000000000000 50
1.6841540962728303  -12.5645292350232491 158.3198563086569379 0.1236114249153481 7.9999999999999982 51
1.7167674800471597  -12.5789666968430183 158.6239853621088685 0.1217293546714610 8.0000000000000000 52
1.7494196341661985  -12.5915229998669229 158.8888800344256822 0.1200748475468162 8.0000000000000000 53
1.7821062916022217  -12.6024458299293940 159.1196433511435657 0.1186194056581310 7.9999999999999991 54
1.8148236259935020  -12.6119506184971080 159.3207245316924343 0.1173381146087207 8.0000000000000000 55
1.8475682152744579  -12.6202245059527023 159.4959972822828149 0.1162092180721111 8.0000000000000000 56
1.8803370056194186  -12.6274299018256286 159.6488305925338125 0.1152137326434559 8.0000000000000018 57
1.9131272766391705  -12.6337076557601353 159.7821521459948997 0.1143351025693570 8.0000000000000000 58
1.9459366084322884  -12.6391798626291081 159.8985046874369687 0.1135588926256162 8.0000000000000000 59
1.9787628508442774  -12.6439523305178696 160.0000958276933716 0.1128725166104710 7.9999999999999982 60
2.0116040951074181  -12.6481167426164447 160.0888418376106870 0.1122649985010503 8.0000000000000000 61
2.0444586479069367  -12.6517525443461327 160.1664060072338884 0.1117267631644700 7.9999999999999982 62
2.0773250078318348  -12.6549285860231855 160.2342321402118728 0.1112494535342461 8.0000000000000000 63
2.1102018441112822  -12.6577045495416094 160.2935737278094734 0.1108257712936134 7.9999999999999991 64
2.1430879775019585  -12.6601321853018511 160.3455193098936888 0.1104493383042988 7.9999999999999982 65
2.1759823631720896  -12.6622563831693373 160.3910144873967170 0.1101145762505141 8.0000000000000000 66
2.2088840754194758  -12.6641160987829906 160.4308810058660129 0.1098166022117677 8.0000000000000018 67
2.2417922940601822  -12.6657451541534289 160.4658332852752096 0.1095511381203082 7.9999999999999991 68
2.2747062923291166  -12.6671729292572088 160.4964927288513650 0.1093144322906677 7.9999999999999991 69
2.3076254261415898  -12.6684249592810474 160.5234001041916372 0.1091031914246449 7.9999999999999991 70
2.3405491245748240  -12.6695234503122087 160.5470262538425459 0.1089145216925109 8.0000000000000000 71
2.3734768814391929  -12.6704877246090817 160.5677813599501746 0.1087458776692944 8.0000000000000000 72
2.4064082478201763  -12.6713346051123317 160.5860229585248646 0.1085950180639116 8.0000000000000000 73
2.4393428254830294  -12.6720787475592331 160.6020628731182001 0.1084599673195391 8.0000000000000000 74
2.4722802610427812  -12.6727329274277380 160.6161732150609396 0.1083389822872688 7.9999999999999991 75
2.5052202408121738  -12.6733082879462735 160.6285915775762874 0.1082305232832316 7.9999999999999991 76
2.5381624862494192  -12.6738145545449488 160.6395255337890262 0.1081332289335774 8.0000000000000018 77
2.5711067499361819  -12.6742602203786756 160.6491565336176564 0.1080458942934775 7.9999999999999991 78
2.6040528120239186  -12.6746527069086046 160.6576432815041926 0.1079674517971311 8.0000000000000000 79
2.6370004770937294  -12.6749985029725725 160.6651246656571743 0.1078969546569419 8.0000000000000000 80
2.6699495713811614  -12.6753032852967351 160.6717222997434646 0.1078335623828224 8.0000000000000000 81
2.7028999403230163  -12.6755720229883231 160.6775427295578140 0.1077765281380569 8.0000000000000000 82
2.7358514463882542  -12.6758090681954290 160.6826793499545545 0.1077251876873098 8.0000000000000000 83
2.7688039671595335  -12.6760182348150110 160.6872140710843837 0.1076789497260422 8.0000000000000000 84
2.8017573936358771  -12.6762028668687776 160.6912187676052781 0.1076372874095580 8.0000000000000000 85
2.8347116287304583  -12.6763658979418565 160.6947565399128166 0.1075997309248014 7.9999999999999982 86
2.8676665859405950  -12.6765099028860710 160.6978828124524057 0.1075658609694251 7.9999999999999991 87
2.9006221881697591  -12.6766371428237825 160.7006462907515640 0.1075353030210542 8.0000000000000000 88
2.9335783666838178  -12.6767496043458880 160.7030897958617572 0.1075077222954904 8.0000000000000000 89
2.9665350601858447  -12.6768490336748449 160.7052509923591117 0.1074828193062168 8.0000000000000000 90
2.9994922139956928  -12.6769369664585980 160.7071630238692705 0.1074603259492763 8.0000000000000018 91
3.0324497793221807  -12.6770147537704823 160.7088550681972663 0.1074400020476882 8.0000000000000000 92
3.0654077126171586  -12.6770835848124257 160.7103528225205764 0.1074216322982563 8.0000000000000000 93
3.0983659750020243  -12.6771445067515529 160.7116789277039572 0.1074050235711214 8.0000000000000000 94
3.1313245317583482  -12.6771984420625845 160.7128533395885768 0.1073900025188753 8.0000000000000000 95
3.1642833518752616  -12.6772462036986369 160.7138936540643215 0.1073764134576422 8.0000000000000000 96
3.1972424076471246  -12.6772885083699709 160.7148153918359981 0.1073641164873582 8.0000000000000000 97
3.2302016743157522  -12.6773259881732692 160.7156322480156518 0.1073529858226605 7.9999999999999982 98
3.2631611297521390  -12.6773592007819573 160.7163563110007374 0.1073429083094106 8.0000000000000000 99
3.2961207541732187  -12.6773886383804388 160.7169982545173355 0.1073337821050158 8.0000000000000000 100
3.3290805298897093  -12.6774147355012055 160.7175675062024993 0.1073255155034300 7.9999999999999991 101
3.3620404410815588  -12.6774378759030597 160.7180723956643646 0.1073180258880806 8.0000000000000000 102
3.3950004735978911  -12.6774583986107920 160.7185202845803929 0.1073112387980207 8.0000000000000000 103
3.4279606147787329  -12.6774766032211001 160.7189176810650793 0.1073050870943969 8.0000000000000000 104
3.4609208532960856  -12.6774927545661118 160.7192703402553207 0.1072995102158799 8.0000000000000018 105
3.4938811790122100  -12.6775070868141686 160.7195833528120374 0.1072944535130632 8.0000000000000000 106
3.5268415828532169  -12.6775198070773243 160.7198612228229990 0.1072898676530268 8.0000000000000000 107
3.5598020566962774  -12.6775310985863392 160.7201079364046450 0.1072857080862960 8.0000000000000000 108
3.5927625932689597  -12.6775411234861402 160.7203270221370417 0.1072819345693366 7.9999999999999982 109
3.6257231860593584  -12.6775500252981210 160.7205216043248299 0.1072785107365250 8.0000000000000000 110
3.6586838292358519  -12.6775579310898401 160.7206944499532710 0.1072754037162245 8.0000000000000000 111
3.6916445175754227  -12.6775649533876145 160.7208480101010366 0.1072725837862209 8.0000000000000000 112
3.7246052463996229  -12.6775711918631213 160.7209844564764865 0.1072700240643002 8.0000000000000000 113
3.7575660115173517  -12.6775767348211623 160.7211057136627232 0.1072677002302332 7.9999999999999991 114
3.7905268091737101  -12.6775816605125833 160.7212134875849188 0.1072655902758451 8.0000000000000000 115
3.8234876360042813  -12.6775860382931853 160.7213092906503675 0.1072636742802184 7.9999999999999982 116
3.8564484889942436  -12.6775899296471302 160.7213944639568695 0.1072619342074034 8.0000000000000018 117
3.8894093654418112  -12.6775933890908270 160.7214701969168402 0.1072603537242959 7.9999999999999991 118
3.9223702629255284  -12.6775964649716588 160.7215375446043026 0.1072589180365994 7.9999999999999991 119
3.9553311792750105  -12.6775992001738267 160.7215974430905021 0.1072576137410100 7.9999999999999982 120
3.9882921125447650  -12.6776016327424301 160.7216507230082243 0.1072564286919669 8.0000000000000000 121
4.0212530609907606  -12.6776037964352941 160.7216981215498208 0.1072553518814836 8.0000000000000000 122
4.0542140230494566  -12.6776057212111084 160.7217402930838830 0.1072543733307348 8.0000000000000000 123
4.0871749973190328  -12.6776074336613096 160.7217778185517432 0.1072534839922143 7.9999999999999991 124
4.1201359825425818  -12.6776089573922839 160.7218112137857133 0.1072526756614012 7.9999999999999991 125
4.1530969775930568  -12.6776103133636866 160.7218409368741732 0.1072519408969839 8.0000000000000000 126
4.1860579814597987  -12.6776115201879982 160.7218673946850345 0.1072512729487897 7.9999999999999982 127
4.2190189932364657  -12.6776125943957894 160.7218909486443863 0.1072506656926558 7.9999999999999991 128
4.2519800121102183  -12.6776135506707099 160.7219119198560406 0.1072501135715553 7.9999999999999991 129
4.2849410373520396  -12.6776144020576638 160.7219305936391720 0.1072496115423634 8.0000000000000000 130
4.3179020683080518  -12.6776151601472904 160.7219472235499325 0.1072491550277084 8.0000000000000000 131
4.3508631043917498  -12.6776158352394646 160.7219620349468983 0.1072487398724128 8.0000000000000000 132
4.3838241450770292  -12.6776164364882540 160.7219752281525302 0.1072483623040757 7.9999999999999991 133
4.4167851898919430  -12.6776169720304281 160.7219869812570892 0.1072480188973937 7.9999999999999991 134
4.4497462384131126  -12.6776174490994222 160.7219974526052511 0.1072477065418601 8.0000000000000000 135
4.4827072902607084  -12.6776178741264296 160.7220067830028256 0.1072474224125141 7.9999999999999982 136
4.5156683450939550  -12.6776182528300900 160.7220150976743867 0.1072471639434477 7.9999999999999991 137
4.5486294026071050  -12.6776185902960261 160.7220225080003502 0.1072469288038049 8.0000000000000018 138
4.5815904625258286  -12.6776188910474481 160.7220291130593637 0.1072467148760339 8.0000000000000036 139
4.6145515246039670  -12.6776191591078522 160.7220350009967831 0.1072465202361786 8.0000000000000000 140
4.6475125886206392  -12.6776193980566152 160.7220402502404113 0.1072463431360135 7.9999999999999982 141
4.6804736543776331  -12.6776196110783914 160.7220449305793863 0.1072461819868471 8.0000000000000000 142
4.7134347216970740  -12.6776198010069443 160.7220491041225898 0.1072460353448360 8.0000000000000000 143
4.7463957904193288  -12.6776199703641019 160.7220528261501045 0.1072459018976662 7.9999999999999991 144
4.7793568604011343  -12.6776201213943587 160.7220561458693169 0.1072457804524723 8.0000000000000018 145
4.8123179315139071  -12.6776202560955404 160.7220591070865225 0.1072456699248786 7.9999999999999982 146
4.8452790036422373  -12.6776203762461748 160.7220617488044923 0.1072455693290554 8.0000000000000018 147
4.8782400766825402  -12.6776204834296671 160.7220641057521959 0.1072454777686965 7.9999999999999982 148
4.9112011505418298  -12.6776205790559136 160.7220662088569725 0.1072453944288299 7.9999999999999991 149
4.9441622251366395  -12.6776206643804095 160.7220680856633237 0.1072453185683855 8.0000000000000000 150
4.9771233003920425  -12.6776207405212915 160.7220697607054376 0.1072452495134476 8.0000000000000000 151
5.0100843762407736  -12.6776208084744688 160.7220712558386140 0.1072451866511291 7.9999999999999982 152
5.0430454526224437  -12.6776208691270806 160.7220725905337986 0.1072451294240091 8.0000000000000018 153
5.0760065294828349  -12.6776209232694406 160.7220737821392902 0.1072450773250817 7.9999999999999991 154
5.1089676067732697  -12.6776209716057124 160.7220748461141397 0.1072450298931688 8.0000000000000000 155
5.1419286844500389  -12.6776210147633250 160.7220757962349467 0.1072449867087530 8.0000000000000000 156
5.1748897624738950  -12.6776210533014186 160.7220766447803726 0.1072449473901931 7.9999999999999991 157
5.2078508408095967  -12.6776210877183253 160.7220774026952483 0.1072449115902844 7.9999999999999982 158
5.2408119194254947  -12.6776211184582284 160.7220780797363204 0.1072448789931357 7.9999999999999973 159
5.2737729982931674  -12.6776211459170760 160.7220786846022804 0.1072448493113295 8.0000000000000000 160
5.3067340773870901  -12.6776211704478623 160.7220792250490149 0.1072448222833426 8.0000000000000000 161
5.3396951566843365  -12.6776211923653293 160.7220797079929184 0.1072447976712017 7.9999999999999982 162
5.3726562361643140  -12.6776212119501377 160.7220801396021557 0.1072447752583524 8.0000000000000018 163
5.4056173158085299  -12.6776212294525585 160.7220805253780895 0.1072447548477221 8.0000000000000018 164
5.4385783956003664  -12.6776212450958266 160.7220808702280692 0.1072447362599597 8.0000000000000000 165
5.4715394755249012  -12.6776212590790553 160.7220811785301180 0.1072447193318348 8.0000000000000000 166
5.5045005555687236  -12.6776212715798735 160.7220814541900609 0.1072447039147822 8.0000000000000000 167
5.5374616357197883  -12.6776212827567463 160.7220817006932521 0.1072446898735791 8.0000000000000000 168
5.5704227159672719  -12.6776212927510752 160.7220819211497087 0.1072446770851418 8.0000000000000000 169
5.6033837963014488  -12.6776213016890438 160.7220821183354360 0.1072446654374315 7.9999999999999991 170
5.6363448767135802  -12.6776213096832571 160.7220822947279260 0.1072446548284595 8.0000000000000000 171
5.6693059571958146  -12.6776213168342231 160.7220824525388707 0.1072446451653822 8.0000000000000000 172
5.7022670377410929  -12.6776213232316657 160.7220825937429254 0.1072446363636782 8.0000000000000018 173
5.7352281183430733  -12.6776213289556754 160.7220827201029749 0.1072446283463993 8.0000000000000000 174
5.7681891989960548  -12.6776213340777666 160.7220828331933831 0.1072446210434898 8.0000000000000000 175
5.8011502796949150  -12.6776213386617957 160.7220829344200865 0.1072446143911672 7.9999999999999991 176
5.8341113604350445  -12.6776213427647946 160.7220830250389270 0.1072446083313584 8.0000000000000000 177
5.8670724412123052  -12.6776213464376823 160.7220831061715103 0.1072446028111867 7.9999999999999991 178
5.9000335220229720  -12.6776213497259675 160.7220831788200144 0.1072445977825060 8.0000000000000018 179
5.9329946028637002  -12.6776213526702790 160.7220832438796378 0.1072445932014758 7.9999999999999982 180
5.9659556837314787  -12.6776213553069361 160.7220833021505655 0.1072445890281750 8.0000000000000000 181
5.9989167646236030  -12.6776213576683752 160.7220833543477170 0.1072445852262510 8.0000000000000000 182
6.0318778455376378  -12.6776213597835898 160.7220834011100123 0.1072445817625991 7.9999999999999982 183
6.0648389264713947  -12.6776213616785043 160.7220834430086995 0.1072445786070721 7.9999999999999991 184
6.0978000074229044  -12.6776213633762680 160.7220834805544882 0.1072445757322151 8.0000000000000018 185
6.1307610883903978  -12.6776213648975862 160.7220835142037458 0.1072445731130242 7.9999999999999982 186
6.1637221693722815  -12.6776213662609720 160.7220835443648639 0.1072445707267279 7.9999999999999982 187
6.1966832503671219  -12.6776213674829812 160.7220835714028340 0.1072445685525865 7.9999999999999982 188
6.2296443313736303  -12.6776213685784107 160.7220835956442215 0.1072445665717107 8.0000000000000000 189
6.2626054123906476  -12.6776213695604980 160.7220836173809744 0.1072445647668962 7.9999999999999991 190
6.2955664934171285  -12.6776213704410843 160.7220836368745154 0.1072445631224728 8.0000000000000000 191
6.3285275744521341  -12.6776213712307637 160.7220836543585563 0.1072445616241675 7.9999999999999991 192
6.3614886554948189  -12.6776213719390132 160.7220836700422808 0.1072445602589798 8.0000000000000000 193
