 # inv_tmp, energy, phys_var, phys_doublon, phys_num, step_i
0.0376868839559222  -1.0688608360181617 14.5047761334212204 0.8926143579715202 8.0000000000000000 1
0.0746614739515584  -1.5751544711703098 16.2319075780344093 0.8821191955568100 7.9999999999999982 2
0.1109260514751594  -2.0900890296598176 18.3953874101525763 0.8687035111833095 8.0000000000000000 3
0.1464953267683199  -2.6092505234100392 20.9969366362076322 0.8523780099481297 8.0000000000000000 4
0.1813947603146878  -3.1283839877831703 24.0280305202354754 0.8332134598066234 8.0000000000000000 5
0.2156581223123170  -3.6436264553094344 27.4709229845848313 0.8113370772973615 8.0000000000000000 6
0.2493247309627405  -4.1516699363938372 31.3001724773354866 0.7869264590566157 7.9999999999999991 7
0.2824368105316089  -4.6498395513121666 35.4843389713259398 0.7602025509333263 7.9999999999999982 8
0.3150373134646578  -5.1360890620955404 39.9875514685525388 0.7314229153501095 7.9999999999999991 9
0.3471684000150552  -5.6089298424991636 44.7707456426614030 0.7008759900721487 8.0000000000000000 10
0.3788706115919818  -6.0673172499653365 49.7925029298950008 0.6688763573069281 8.0000000000000000 11
0.4101826465598851  -6.5105201336110028 55.0095450044173546 0.6357604865893591 8.0000000000000000 12
0.4411415674607816  -6.9379961395532046 60.3770220077921493 0.6018821275400628 8.0000000000000000 13
0.4717832384032316  -7.3492895058482146 65.8487662767921051 0.5676065555477887 7.9999999999999991 14
0.5021428023892176  -7.7439609952760042 71.3776676120908746 0.5333031688832932 8.0000000000000000 15
0.5322550481094058  -8.1215528413783087 76.9162736612482831 0.4993363928747251 8.0000000000000000 16
0.5621545711449457  -8.4815859288520397 82.4176473501509861 0.4660553339199476 8.0000000000000000 17
0.5918756936805178  -8.8235823575347681 87.8364409594699964 0.4337830200614841 8.0000000000000000 18
0.6214521598758186  -9.1471042398393614 93.1300891637547892 0.4028062772287003 8.0000000000000000 19
0.6509166637262568  -9.4517990229575908 98.2599914903933609 0.3733672839318942 8.0000000000000018 20
0.6803002885978636  -9.7374425734322578 103.1925517125484788 0.3456576397279735 8.0000000000000000 21
0.7096319422376611  -10.0039733009426275 107.8999644113491456 0.3198154360699802 8.0000000000000036 22
0.7389378607480012  -10.2515132103744104 112.3606790190495985 0.2959254175931689 8.0000000000000000 23
0.7682412347686212  -10.4803744288168001 116.5595184784134517 0.2740219518446729 8.0000000000000018 24
0.7975619866923522  -10.6910520238808324 120.4874732336459431 0.2540942489385535 7.9999999999999982 25
0.8269167043023330  -10.8842055426516424 124.1412244256318900 0.2360931205804730 8.0000000000000018 26
0.8563187173796206  -11.0606325705956596 127.5224695020239238 0.2199385394775644 8.0000000000000000 27
0.8857782913509820  -11.2212378049920929 130.6371291168456992 0.2055273309641613 8.0000000000000000 28
0.9153029060317857  -11.3670008232070838 133.4945088267764106 0.1927404627450643 8.0000000000000036 29
0.9448975869302223  -11.4989451025350231 136.1064765121434732 0.1814495593738786 7.9999999999999991 30
0.9745652598251257  -11.6181101008311884 138.4867005092510226 0.1715224256972488 8.0000000000000000 31
1.0043071047574061  -11.7255274774337312 140.6499772693011039 0.1628274984378679 8.0000000000000000 32
1.0341228917861702  -11.8222019106478626 142.6116630583447602 0.1552372478853914 8.0000000000000000 33
1.0640112868514318  -11.9090964920326670 144.3872128695076071 0.1486306208266308 8.0000000000000000 34
1.0939701212550321  -11.9871223536654767 145.9918216155625714 0.1428946550569281 8.0000000000000000 35
1.1239966223534310  -12.0571319949751796 147.4401575567141549 0.1379254113120935 8.0000000000000018 36
1.1540876060211407  -12.1199156926432270 148.7461752645191950 0.1336283670768983 8.0000000000000018 37
1.1842396334057943  -12.1762003703837074 149.9229946076959834 0.1299184046687806 8.0000000000000018 38
1.2144491356373046  -12.2266503479934343 150.9828326808843997 0.1267195082598833 8.0000000000000000 39
1.2447125106725616  -12.2718694590554165 151.9369767902779529 0.1239642647300137 7.9999999999999982 40
1.2750261965369647  -12.3124041080223456 152.7957881838707408 0.1215932438478362 8.0000000000000018 41
1.3053867250182127  -12.3487469192916954 153.5687279039618147 0.1195543156729262 8.0000000000000036 42
1.3357907594953402  -12.3813407067516152 154.2643977748201110 0.1178019479410622 8.0000000000000018 43
1.3662351201337686  -12.4105825587208507 154.8905910208956129 0.1162965137293622 8.0000000000000018 44
1.3967167992044984  -12.4368278889890789 155.4543482944127959 0.1150036297832331 8.0000000000000000 45
1.4272329688302456  -12.4603943499166903 155.9620159637730126 0.1138935382467338 7.9999999999999982 46
1.4577809830450446  -12.4815655391873417 156.4193043851498430 0.1129405388266289 7.9999999999999982 47
1.4883583756870986  -12.5005944591011158 156.8313445695595476 0.1121224742843103 8.0000000000000018 48
1.5189628553304100  -12.5177067076355222 157.2027421919684684 0.1114202692605589 7.9999999999999982 49
1.5495922981973946  -12.5331033952141517 157.5376282938421184 0.1108175205093463 8.0000000000000000 50
1.5802447397779573  -12.5469637914011773 157.8397063305105235 0.1103001354093174 8.0000000000000000 51
1.6109183657049215  -12.5594477126037631 158.1122954315852951 0.1098560149419746 8.0000000000000018 52
1.6416115022953881  -12.5706976661561995 158.3583698949082361 0.1094747770219369 8.0000000000000000 53
1.6723226070568626  -12.5808407685585664 158.5805950374522695 0.1091475160202616 8.0000000000000018 54
1.7030502593706722  -12.5899904566811074 158.7813595925475738 0.1088665944489596 8.0000000000000000 55
1.7337931514986771  -12.5982480108357215 158.9628048815370107 0.1086254630089340 8.0000000000000000 56
1.7645500800087033  -12.6057039080680084 159.1268510070559614 0.1084185054981304 8.0000000000000018 57
1.7953199376761244  -12.6124390230697649 159.2752203204025250 0.1082409053990447 7.9999999999999991 58
1.8261017058909552  -12.6185256929201408 159.4094584112893358 0.1080885312926081 8.0000000000000018 59
1.8568944475794544  -12.6240286605549414 159.5309528579172706 0.1079578385642604 8.0000000000000000 60
1.8876973006347695  -12.6290059105214958 159.6409499611743286 0.1078457851686781 8.0000000000000000 61
1.9185094718412512  -12.6335094092569094 159.7405696705406797 0.1077497594970404 7.9999999999999982 62
1.9493302312705083  -12.6375857608679389 159.8308188922171098 0.1076675186425581 8.0000000000000000 63
1.9801589071233145  -12.6412767882112131 159.9126033528767721 0.1075971355857351 8.0000000000000018 64
2.0109948809893132  -12.6446200479865070 159.9867381758673446 0.1075369540212118 8.0000000000000000 65
2.0418375834956928  -12.6476492875655993 160.0539573109688831 0.1074855497244894 8.0000000000000018 66
2.0726864903161588  -12.6503948503857941 160.1149219441697937 0.1074416975112160 8.0000000000000018 67
2.1035411185123172  -12.6528840359360242 160.1702280004430463 0.1074043429760946 8.0000000000000000 68
2.1344010231808279  -12.6551414196490324 160.2204128402159995 0.1073725783149239 8.0000000000000000 69
2.1652657943811571  -12.6571891373791701 160.2659612391064172 0.1073456216338456 7.9999999999999991 70
2.1961350543203979  -12.6590471385842953 160.3073107304968801 0.1073227992364575 8.0000000000000000 71
2.2270084547732996  -12.6607334118354746 160.3448563815593388 0.1073035304538179 8.0000000000000000 72
2.2578856747173184  -12.6622641858422949 160.3789550653521019 0.1072873146461106 8.0000000000000000 73
2.2887664181641343  -12.6636541087988270 160.4099292845001798 0.1072737200592886 8.0000000000000018 74
2.3196504121706369  -12.6649164085186214 160.4380705956553754 0.1072623742666299 8.0000000000000018 75
2.3505374050138115  -12.6660630355324493 160.4636426783418415 0.1072529559649295 8.0000000000000018 76
2.3814271645153657  -12.6671047910633412 160.4868840868363407 0.1072451879289927 8.0000000000000000 77
2.4123194765031579  -12.6680514415669094 160.5080107193539902 0.1072388309570205 7.9999999999999991 78
2.4432141433976695  -12.6689118213258194 160.5272180349399491 0.1072336786641190 7.9999999999999982 79
2.4741109829128098  -12.6696939244130036 160.5446830450437119 0.1072295530021536 8.0000000000000018 80
2.5050098268613255  -12.6704049871849680 160.5605661037311620 0.1072263004020328 8.0000000000000000 81
2.5359105200559520  -12.6710515623325293 160.5750125178201984 0.1072237884497219 8.0000000000000000 82
2.5668129192982523  -12.6716395853980615 160.5881539958614042 0.1072219030202316 8.0000000000000000 83
2.5977168924477994  -12.6721744345649210 160.6001099528016596 0.1072205458048622 8.0000000000000000 84
2.6286223175650476  -12.6726609844334153 160.6109886853195690 0.1072196321763636 7.9999999999999982 85
2.6595290821217832  -12.6731036544175240 160.6208884311908776 0.1072190893446816 8.0000000000000018 86
2.6904370822736285  -12.6735064523257535 160.6298983245912382 0.1072188547627706 7.9999999999999991 87
2.7213462221895246  -12.6738730136274143 160.6380992579652798 0.1072188747477671 8.0000000000000036 88
2.7522564134335865  -12.6742066368502044 160.6455646599506508 0.1072191032877760 7.9999999999999991 89
2.7831675743951005  -12.6745103155068009 160.6523611978396673 0.1072195010087495 8.0000000000000000 90
2.8140796297628112  -12.6747867669047167 160.6585494121617330 0.1072200342795522 7.9999999999999991 91
2.8449925100399547  -12.6750384581560454 160.6641842901770474 0.1072206744363904 8.0000000000000000 92
2.8759061510968245  -12.6752676296695412 160.6693157843585880 0.1072213971104235 8.0000000000000000 93
2.9068204937578828  -12.6754763163779494 160.6739892813136805 0.1072221816446303 7.9999999999999973 94
2.9377354834207137  -12.6756663669266310 160.6782460260301377 0.1072230105879393 7.9999999999999973 95
2.9686510697043227  -12.6758394610260474 160.6821235058336015 0.1072238692562825 8.0000000000000018 96
2.9995672061244822  -12.6759971251495998 160.6856557979923537 0.1072247453516587 8.0000000000000000 97
3.0304838497940256  -12.6761407467397085 160.6888738845113380 0.1072256286315063 8.0000000000000000 98
3.0614009611461559  -12.6762715870680793 160.6918059372936227 0.1072265106217317 8.0000000000000000 99
3.0923185036789755  -12.6763907928815129 160.6944775765329041 0.1072273843676450 7.9999999999999991 100
3.1232364437196165  -12.6764994069511570 160.6969121049137925 0.1072282442178209 8.0000000000000000 101
3.1541547502064460  -12.6765983776312048 160.6991307199386938 0.1072290856365756 8.0000000000000000 102
3.1850733944879646  -12.6766885675225556 160.7011527064724419 0.1072299050413222 8.0000000000000018 103
3.2159923501371126  -12.6767707613272140 160.7029956113888716 0.1072306996615624 8.0000000000000000 104
3.2469115927798060  -12.6768456729710053 160.7046754020198307 0.1072314674167019 7.9999999999999982 105
3.2778310999366105  -12.6769139520641723 160.7062066099387607 0.1072322068102455 8.0000000000000000 106
3.3087508508765469  -12.6769761897628506 160.7076024614645178 0.1072329168382465 7.9999999999999982 107
3.3396708264821053  -12.6770329240882127 160.7088749961358189 0.1072335969101664 8.0000000000000000 108
3.3705910091246052  -12.6770846447543342 160.7100351742842861 0.1072342467805330 7.9999999999999982 109
3.4015113825491166  -12.6771317975512599 160.7110929747294676 0.1072348664900021 8.0000000000000000 110
3.4324319317682126  -12.6771747883247965 160.7120574835160198 0.1072354563145996 8.0000000000000000 111
3.4633526429638737  -12.6772139865910169 160.7129369745303791 0.1072360167220854 8.0000000000000036 112
3.4942735033969288  -12.6772497288194490 160.7137389827503853 0.1072365483345095 8.0000000000000018 113
3.5251945013234534  -12.6772823214159160 160.7144703708126769 0.1072370518961552 7.9999999999999982 114
3.5561156259175939  -12.6773120434329165 160.7151373895155757 0.1072375282461635 7.9999999999999991 115
3.5870368672003332  -12.6773391490327807 160.7157457328188457 0.1072379782952246 8.0000000000000018 116
3.6179582159737325  -12.6773638697266051 160.7163005878470017 0.1072384030057985 8.0000000000000000 117
3.6488796637602450  -12.6773864164095738 160.7168066803575357 0.1072388033753990 8.0000000000000000 118
3.6798012027467037  -12.6774069812114671 160.7172683160888482 0.1072391804225294 7.9999999999999982 119
3.7107228257326272  -12.6774257391794105 160.7176894183679110 0.1072395351749153 8.0000000000000000 120
3.7416445260825228  -12.6774428498081946 160.7180735623186365 0.1072398686597216 8.0000000000000018 121
3.7725662976818604  -12.6774584584322305 160.7184240059829108 0.1072401818954834 8.0000000000000000 122
3.8034881348964653  -12.6774726974917691 160.7187437186357784 0.1072404758855128 8.0000000000000000 123
3.8344100325350361  -12.6774856876848450 160.7190354065498070 0.1072407516125744 8.0000000000000000 124
3.8653319858145787  -12.6774975390154250 160.7193015364425435 0.1072410100346511 8.0000000000000000 125
3.8962539903285007  -12.6775083517472087 160.7195443568159874 0.1072412520816414 8.0000000000000018 126
3.9271760420171979  -12.6775182172716327 160.7197659173802720 0.1072414786528521 8.0000000000000018 127
3.9580981371409045  -12.6775272188979216 160.7199680867356051 0.1072416906151678 7.9999999999999991 128
3.9890202722546633  -12.6775354325722525 160.7201525684691887 0.1072418888017942 8.0000000000000000 129
4.0199424441852365  -12.6775429275323628 160.7203209158111008 0.1072420740114830 7.9999999999999982 130
4.0508646500098076  -12.6775497669036454 160.7204745449798224 0.1072422470081647 8.0000000000000000 131
4.0817868870363441  -12.6775560082417762 160.7206147473340820 0.1072424085209171 7.9999999999999982 132
4.1127091527854915  -12.6775617040269388 160.7207427004407521 0.1072425592442154 8.0000000000000000 133
4.1436314449738711  -12.6775669021137958 160.7208594781542104 0.1072426998384105 7.9999999999999982 134
4.1745537614986823  -12.6775716461413790 160.7209660597977461 0.1072428309303935 8.0000000000000000 135
4.2054761004235113  -12.6775759759063558 160.7210633385269318 0.1072429531144093 8.0000000000000000 136
4.2363984599652396  -12.6775799277030821 160.7211521289484324 0.1072430669529856 7.9999999999999982 137
4.2673208384819796  -12.6775835346333814 160.7212331740613536 0.1072431729779525 8.0000000000000000 138
4.2982432344619568  -12.6775868268886658 160.7213071515812146 0.1072432716915268 8.0000000000000036 139
4.3291656465132515  -12.6775898320071132 160.7213746797026488 0.1072433635674428 7.9999999999999991 140
4.3600880733543530  -12.6775925751078926 160.7214363223505416 0.1072434490521125 7.9999999999999982 141
4.3910105138054494  -12.6775950791046146 160.7214925939649390 0.1072435285658006 7.9999999999999982 142
4.4219329667804033  -12.6775973648998512 160.7215439638621604 0.1072436025038030 8.0000000000000000 143
4.4528554312793487  -12.6775994515624255 160.7215908602097443 0.1072436712376188 8.0000000000000000 144
4.4837779063818832  -12.6776013564889425 160.7216336736489382 0.1072437351161084 7.9999999999999982 145
4.5147003912407753  -12.6776030955510777 160.7216727605971869 0.1072437944666297 7.9999999999999991 146
4.5456228850761873  -12.6776046832297578 160.7217084462581340 0.1072438495961485 8.0000000000000000 147
4.5765453871703388  -12.6776061327375427 160.7217410273660505 0.1072439007923185 8.0000000000000000 148
4.6074678968625893  -12.6776074561301364 160.7217707746873998 0.1072439483245276 7.9999999999999991 149
4.6383904135449150  -12.6776086644080870 160.7217979353021633 0.1072439924449079 8.0000000000000018 150
4.6693129366577431  -12.6776097676094466 160.7218227346828598 0.1072440333893082 7.9999999999999982 151
4.7002354656861014  -12.6776107748943616 160.7218453785917518 0.1072440713782277 8.0000000000000000 152
4.7311580001560873  -12.6776116946220512 160.7218660548089986 0.1072441066177098 7.9999999999999991 153
4.7620805396316035  -12.6776125344211472 160.7218849347103458 0.1072441393001965 7.9999999999999982 154
4.7930030837113593  -12.6776133012537375 160.7219021747044962 0.1072441696053432 7.9999999999999982 155
4.8239256320261044  -12.6776140014738115 160.7219179175448858 0.1072441977007943 7.9999999999999991 156
4.8548481842360838  -12.6776146408805417 160.7219322935255263 0.1072442237429199 8.0000000000000000 157
4.8857707400286863  -12.6776152247669032 160.7219454215719736 0.1072442478775154 8.0000000000000000 158
4.9166932991162939  -12.6776157579639843 160.7219574102362571 0.1072442702404640 8.0000000000000000 159
4.9476158612342918  -12.6776162448814276 160.7219683586047836 0.1072442909583639 7.9999999999999982 160
4.9785384261392238  -12.6776166895443172 160.7219783571257494 0.1072443101491206 8.0000000000000018 161
5.0094609936071288  -12.6776170956267826 160.7219874883645616 0.1072443279225064 8.0000000000000000 162
5.0403835634319689  -12.6776174664827259 160.7219958276931493 0.1072443443806882 7.9999999999999991 163
5.0713061354242086  -12.6776178051738064 160.7220034439179699 0.1072443596187242 8.0000000000000018 164
5.1022287094094994  -12.6776181144949476 160.7220103998537581 0.1072443737250321 8.0000000000000000 165
5.1331512852274619  -12.6776183969976852 160.7220167528466277 0.1072443867818286 8.0000000000000000 166
5.1640738627305787  -12.6776186550113827 160.7220225552514705 0.1072443988655432 7.9999999999999982 167
5.1949964417831636  -12.6776188906626537 160.7220278548675481 0.1072444100472061 8.0000000000000018 168
5.2259190222604142  -12.6776191058930294 160.7220326953355709 0.1072444203928125 8.0000000000000000 169
5.2568416040475476  -12.6776193024751400 160.7220371165010420 0.1072444299636640 8.0000000000000036 170
5.2877641870389933  -12.6776194820274100 160.7220411547443462 0.1072444388166888 8.0000000000000000 171
5.3186867711376618  -12.6776196460275354 160.7220448432833564 0.1072444470047408 7.9999999999999982 172
5.3496093562542635  -12.6776197958247465 160.7220482124491241 0.1072444545768807 8.0000000000000018 173
5.3805319423066837  -12.6776199326509680 160.7220512899364735 0.1072444615786375 8.0000000000000018 174
5.4114545292194105  -12.6776200576310973 160.7220541010346722 0.1072444680522545 8.0000000000000000 175
5.4423771169230033  -12.6776201717922898 160.7220566688362737 0.1072444740369178 8.0000000000000036 176
5.4732997053536101  -12.6776202760724495 160.7220590144282824 0.1072444795689704 7.9999999999999991 177
5.5042222944525143  -12.6776203713280680 160.7220611570672304 0.1072444846821121 7.9999999999999982 178
5.5351448841657263  -12.6776204583412380 160.7220631143377716 0.1072444894075861 7.9999999999999991 179
5.5660674744436056  -12.6776205378261722 160.7220649022986549 0.1072444937743523 8.0000000000000000 180
5.5969900652405098  -12.6776206104350795 160.7220665356148288 0.1072444978092496 8.0000000000000000 181
5.6279126565144741  -12.6776206767635831 160.7220680276792564 0.1072445015371473 8.0000000000000000 182
5.6588352482269135  -12.6776207373556247 160.7220693907232203 0.1072445049810857 8.0000000000000000 183
5.6897578403423577  -12.6776207927079554 160.7220706359170208 0.1072445081624066 7.9999999999999982 184
5.7206804328281944  -12.6776208432742585 160.7220717734626305 0.1072445111008764 7.9999999999999991 185
5.7516030256544406  -12.6776208894688658 160.7220728126775384 0.1072445138147989 8.0000000000000018 186
5.7825256187935388  -12.6776209316701731 160.7220737620712612 0.1072445163211209 8.0000000000000000 187
5.8134482122201492  -12.6776209702237974 160.7220746294162552 0.1072445186355312 7.9999999999999973 188
5.8443708059109820  -12.6776210054454026 160.7220754218114394 0.1072445207725516 8.0000000000000000 189
5.8752933998446268  -12.6776210376232648 160.7220761457404024 0.1072445227456214 8.0000000000000000 190
5.9062159940014052  -12.6776210670207288 160.7220768071254611 0.1072445245671774 8.0000000000000036 191
5.9371385883632239  -12.6776210938782867 160.7220774113756363 0.1072445262487263 8.0000000000000000 192
5.9680611829134573  -12.6776211184156224 160.7220779634318717 0.1072445278009136 7.9999999999999982 193
