 # inv_tmp, energy, phys_var, phys_doublon, phys_num, step_i
0.0378024687484857  -0.9065975374985219 13.1849471466346380 0.8885099538040494 8.0000000000000000 1
0.0749409180037545  -1.3753803202624710 14.4861688091129466 0.8817140520435633 7.9999999999999982 2
0.1114256369805426  -1.8475719106522388 16.1170094950353509 0.8729804256563842 8.0000000000000000 3
0.1472794407746384  -2.3185115174446245 18.0628081706309906 0.8625281663490076 7.9999999999999991 4
0.1825361425273329  -2.7836711214745127 20.2998019212327279 0.8506118989608487 7.9999999999999991 5
0.2172381150952047  -3.2389252444995424 22.7973758318772610 0.8374999267828156 8.0000000000000018 6
0.2514332580765975  -3.6807802877652391 25.5209513596550437 0.8234518897638919 8.0000000000000000 7
0.2851717533723425  -4.1065386413259279 28.4350968781227671 0.8086989354348694 7.9999999999999982 8
0.3185029792101692  -4.5143850291033498 31.5064409671823213 0.7934286945962354 8.0000000000000000 9
0.3514728750545055  -4.9033954523473575 34.7060492328721892 0.7777762833692607 8.0000000000000000 10
0.3841219391579390  -5.2734794795313329 38.0110546646604064 0.7618214533986727 8.0000000000000000 11
0.4164839290491156  -5.6252727321195222 41.4054690374906613 0.7455911513016078 8.0000000000000000 12
0.4485852462163438  -5.9599980590104327 44.8802165027348110 0.7290662574842358 8.0000000000000000 13
0.4804449296678864  -6.2793120938030267 48.4325043662337293 0.7121911444793629 8.0000000000000000 14
0.5120751573876273  -6.5851501819503335 52.0646799608112474 0.6948848254332809 8.0000000000000000 15
0.5434821513797151  -6.8795785082600371 55.7827266054020185 0.6770527224478775 7.9999999999999991 16
0.5746673901514997  -7.1646586924596063 59.5945396852987770 0.6585983560911214 8.0000000000000000 17
0.6056290424702844  -7.4423276881844123 63.5081081664141891 0.6394344652455399 8.0000000000000018 18
0.6363635415116380  -7.7142946148888516 67.5297152924323143 0.6194931785917031 8.0000000000000000 19
0.6668672163682129  -7.9819559549526087 71.6622675241696072 0.5987348810628269 7.9999999999999991 20
0.6971378893154309  -8.2463309536120306 75.9038609649219751 0.5771553829769578 8.0000000000000000 21
0.7271763363865613  -8.5080195797377289 80.2466941556200482 0.5547909539119864 8.0000000000000000 22
0.7569875019105349  -8.7671855663431373 84.6764282327388287 0.5317207789452735 8.0000000000000000 23
0.7865813613756510  -9.0235664827512156 89.1720737067748814 0.5080664742002307 8.0000000000000018 24
0.8159733463897704  -9.2765113238346242 93.7064442355091529 0.4839884835946462 7.9999999999999982 25
0.8451842821284083  -9.5250438271871118 98.2471633000129287 0.4596794611188241 8.0000000000000000 26
0.8742398381726477  -9.7679470119684702 102.7581467201494263 0.4353550820632411 8.0000000000000000 27
0.9031695500266774  -10.0038618422708119 107.2014239066241288 0.4112430560983680 7.9999999999999991 28
0.9320055200026476  -10.2313910757044013 111.5391165012016188 0.3875713603453272 8.0000000000000000 29
0.9607809419167191  -10.4491987531543042 115.7353750117378866 0.3645568108621142 8.0000000000000000 30
0.9895286069435615  -10.6560966150382512 119.7580867450402025 0.3423950190628345 8.0000000000000000 31
1.0182795363803285  -10.8511108329843999 123.5802089078579939 0.3212525505970675 7.9999999999999991 32
1.0470618551074271  -11.0335253624806100 127.1806398628926331 0.3012617702231841 7.9999999999999991 33
1.0758999754535643  -11.2029013397211248 130.5446064394247117 0.2825184891272085 8.0000000000000000 34
1.1048141146211383  -11.3590746838026497 133.6636035159009452 0.2650822011274999 8.0000000000000000 35
1.1338201281679685  -11.5021360189979323 136.5349649035199207 0.2489784518781165 8.0000000000000000 36
1.1629296126141182  -11.6323980379667056 139.1611679368130581 0.2342027529729770 8.0000000000000000 37
1.1921502138910929  -11.7503555461701801 141.5489789318576186 0.2207254262935274 8.0000000000000018 38
1.2214860739960494  -11.8566428717649579 143.7085369092498297 0.2084968198442098 8.0000000000000000 39
1.2509383529846625  -11.9519923656708453 145.6524542311552750 0.1974524433180885 8.0000000000000000 40
1.2805057738458510  -12.0371966099945613 147.3949904279785983 0.1875176993090982 8.0000000000000000 41
1.3101851506382336  -12.1130758954800299 148.9513336724658075 0.1786120106615416 8.0000000000000018 42
1.3399718730870256  -12.1804516402820404 150.3370057375987585 0.1706522508851914 8.0000000000000000 43
1.3698603320984875  -12.2401257544211877 151.5673920538322079 0.1635554659833200 8.0000000000000018 44
1.3998442796071933  -12.2928655073367725 152.6573887840648354 0.1572409317092333 8.0000000000000018 45
1.4299171226836893  -12.3393932001688675 153.6211531180603629 0.1516316232488339 8.0000000000000000 46
1.4600721561199688  -12.3803798367047033 154.4719404017628221 0.1466551894419851 8.0000000000000000 47
1.4903027401817142  -12.4164419829857060 155.2220113594913187 0.1422445260260584 7.9999999999999991 48
1.5206024313207889  -12.4481410666150367 155.8825937350806328 0.1383380365807995 8.0000000000000000 49
1.5509650737975542  -12.4759844624669380 156.4638845331478478 0.1348796595120657 7.9999999999999973 50
1.5813848597175586  -12.5004278200928312 156.9750812210119477 0.1318187271736185 7.9999999999999982 51
1.6118563642063495  -12.5218781955226000 157.4244324487108884 0.1291097108442600 8.0000000000000018 52
1.6423745615183527  -12.5406976481689192 157.8193008763658156 0.1267118938001045 8.0000000000000018 53
1.6729348269259277  -12.5572070481989666 158.1662324723784252 0.1245890046823041 7.9999999999999982 54
1.7035329283388061  -12.5716899099015951 158.4710281309443758 0.1227088349459786 7.9999999999999982 55
1.7341650108026980  -12.5843961228108459 158.7388146589523785 0.1210428573586146 8.0000000000000000 56
1.7648275763356469  -12.5955454961219999 158.9741131270558299 0.1195658571491713 8.0000000000000018 57
1.7955174609832705  -12.6053310651044743 159.1809033033438823 0.1182555832921682 8.0000000000000000 58
1.8262318105020499  -12.6139221326785389 159.3626834285190341 0.1170924243309841 8.0000000000000000 59
1.8569680557016177  -12.6214670368470241 159.5225249846735096 0.1160591108992225 7.9999999999999982 60
1.8877238881791845  -12.6280956468034322 159.6631223874147167 0.1151404455089205 8.0000000000000000 61
1.9184972369484978  -12.6339215985687670 159.7868377201059502 0.1143230590875623 8.0000000000000018 62
1.9492862462897953  -12.6390442859913819 159.8957407513892406 0.1135951930376778 8.0000000000000000 63
1.9800892550152549  -12.6435506257084675 159.9916445505109266 0.1129465051637236 7.9999999999999982 64
2.0109047772472386  -12.6475166158584464 160.0761370530033219 0.1123678975831605 8.0000000000000000 65
2.0417314847365566  -12.6510087084403793 160.1506089425124060 0.1118513646524924 8.0000000000000000 66
2.0725681906987270  -12.6540850146042523 160.2162782109215300 0.1113898589495116 7.9999999999999982 67
2.1034138351128795  -12.6567963610934200 160.2742117442821268 0.1109771734267516 7.9999999999999982 68
2.1342674714064631  -12.6591872147398927 160.3253442607006889 0.1106078379638529 8.0000000000000018 69
2.1651282544362749  -12.6612964904710488 160.3704949013053351 0.1102770286808097 8.0000000000000000 70
2.1959954296700941  -12.6631582568151160 160.4103817488555137 0.1099804885176957 8.0000000000000000 71
2.2268683234714883  -12.6648023514551085 160.4456345219243190 0.1097144577311812 8.0000000000000000 72
2.2577463343918898  -12.6662549180150599 160.4768056668210079 0.1094756130985011 8.0000000000000000 73
2.2886289253776368  -12.6675388739916190 160.5043800451190918 0.1092610147521273 7.9999999999999982 74
2.3195156168046727  -12.6686743185793169 160.5287833921474885 0.1090680596913197 7.9999999999999982 75
2.3504059802593322  -12.6696788880825792 160.5503897012327172 0.1088944411290841 7.9999999999999991 76
2.3812996329898151  -12.6705680656604169 160.5695276698866678 0.1087381129346351 8.0000000000000000 77
2.4121962329591318  -12.6713554513054429 160.5864863274588572 0.1085972585225164 8.0000000000000000 78
2.4430954744364559  -12.6720529972106561 160.6015199489189058 0.1084702636205979 7.9999999999999991 79
2.4739970840696470  -12.6726712130173809 160.6148523462696858 0.1083556924209501 8.0000000000000018 80
2.5049008173872638  -12.6732193448577561 160.6266806174787121 0.1082522666808901 8.0000000000000036 81
2.5358064556835420  -12.6737055315969691 160.6371784226000159 0.1081588473970913 8.0000000000000000 82
2.5667138032445669  -12.6741369412360889 160.6464988478006717 0.1080744187243529 7.9999999999999982 83
2.5976226848782402  -12.6745198900489129 160.6547769101698862 0.1079980738531942 7.9999999999999982 84
2.6285329437146090  -12.6748599466888070 160.6621317493438426 0.1079290025975682 7.9999999999999982 85
2.6594444392467089  -12.6751620232078306 160.6686685460097124 0.1078664804763350 8.0000000000000000 86
2.6903570455853334  -12.6754304546753183 160.6744802021515284 0.1078098591002715 8.0000000000000000 87
2.7212706499040404  -12.6756690688617280 160.6796488133772982 0.1077585577008584 8.0000000000000000 88
2.7521851510533279  -12.6758812472609570 160.6842469597268064 0.1077120556583319 7.9999999999999973 89
2.7831004583252441  -12.6760699785578836 160.6883388379414725 0.1076698859049374 7.9999999999999982 90
2.8140164903517797  -12.6762379055028997 160.6919812552009148 0.1076316290953402 8.0000000000000036 91
2.8449331741222563  -12.6763873660298820 160.6952245017478162 0.1075969084500492 7.9999999999999982 92
2.8758504441065669  -12.6765204293452527 160.6981131175801352 0.1075653851897740 8.0000000000000000 93
2.9067682414726104  -12.6766389276210401 160.7006865664326369 0.1075367544891116 8.0000000000000000 94
2.9376865133875554  -12.6767444838434873 160.7029798285831816 0.1075107418870540 8.0000000000000000 95
2.9686052123937361  -12.6768385362972325 160.7050239225396808 0.1074871000997048 7.9999999999999991 96
2.9995242958510087  -12.6769223601035570 160.7068463643847167 0.1074656061874614 8.0000000000000000 97
3.0304437254383232  -12.6769970861777281 160.7084715724423063 0.1074460590348817 7.9999999999999991 98
3.0613634667080420  -12.6770637179237582 160.7099212239618851 0.1074282771066490 8.0000000000000036 99
3.0922834886873085  -12.6771231459445168 160.7112145696679590 0.1074120964475637 7.9999999999999991 100
3.1232037635213463  -12.6771761610101450 160.7123687112980122 0.1073973688984274 8.0000000000000018 101
3.1541242661541857  -12.6772234654966844 160.7133988465989773 0.1073839605031096 7.9999999999999982 102
3.1850449740427758  -12.6772656834808526 160.7143184857102369 0.1073717500850859 8.0000000000000000 103
3.2159658669009215  -12.6773033696530106 160.7151396423603558 0.1073606279743376 7.9999999999999991 104
3.2468869264698310  -12.6773370171907747 160.7158730028927494 0.1073504948677929 8.0000000000000000 105
3.2778081363124754  -12.6773670647176431 160.7165280757568553 0.1073412608084756 7.9999999999999991 106
3.3087294816291886  -12.6773939024559716 160.7171133237831668 0.1073328442702791 8.0000000000000000 107
3.3396509490923032  -12.6774178776699635 160.7176362812750767 0.1073251713368075 7.9999999999999982 108
3.3705725266977766  -12.6774392994828595 160.7181036577056830 0.1073181749640669 7.9999999999999973 109
3.4014942036320446  -12.6774584431420188 160.7185214295882361 0.1073117943179677 8.0000000000000000 110
3.4324159701524963  -12.6774755537968531 160.7188949219035408 0.1073059741786270 8.0000000000000000 111
3.4633378174801481  -12.6774908498466061 160.7192288802993971 0.1073006644043746 8.0000000000000000 112
3.4942597377032403  -12.6775045259081605 160.7195275351320447 0.1072958194491586 7.9999999999999982 113
3.5251817236906327  -12.6775167554480177 160.7197946582930115 0.1072913979277543 7.9999999999999991 114
3.5561037690139714  -12.6775276931173089 160.7200336136513954 0.1072873622238009 8.0000000000000000 115
3.5870258678777351  -12.6775374768241829 160.7202474018464784 0.1072836781362352 7.9999999999999991 116
3.6179480150563266  -12.6775462295737125 160.7204387000753059 0.1072803145601799 8.0000000000000000 117
3.6488702058375142  -12.6775540611019402 160.7206098974469342 0.1072772431987661 8.0000000000000018 118
3.6797924359715499  -12.6775610693276732 160.7207631264072916 0.1072744383027553 7.9999999999999973 119
3.7107147016253923  -12.6775673416427317 160.7209002906805040 0.1072718764351554 8.0000000000000000 120
3.7416369993415115  -12.6775729560589170 160.7210230901195871 0.1072695362583270 8.0000000000000000 121
3.7725593260008230  -12.6775779822280672 160.7211330428152394 0.1072673983413382 8.0000000000000000 122
3.8034816787893022  -12.6775824823494325 160.7212315047715379 0.1072654449855630 8.0000000000000000 123
3.8344040551679415  -12.6775865119770099 160.7213196874194523 0.1072636600667242 7.9999999999999982 124
3.8653264528456841  -12.6775901207381878 160.7213986732122066 0.1072620288917698 7.9999999999999982 125
3.8962488697550555  -12.6775933529734708 160.7214694295134620 0.1072605380691367 7.9999999999999991 126
3.9271713040302063  -12.6775962483062408 160.7215328209711060 0.1072591753911034 7.9999999999999973 127
3.9580937539871264  -12.6775988421502674 160.7215896205425452 0.1072579297270645 7.9999999999999991 128
3.9890162181058284  -12.6776011661618320 160.7216405193210562 0.1072567909266769 8.0000000000000000 129
4.0199386950142779  -12.6776032486427113 160.7216861352966077 0.1072557497319354 7.9999999999999991 130
4.0508611834739154  -12.6776051148994107 160.7217270211671689 0.1072547976973268 8.0000000000000000 131
4.0817836823666092  -12.6776067875633629 160.7217636713053821 0.1072539271172959 8.0000000000000018 132
4.1127061906828848  -12.6776082868765911 160.7217965279737371 0.1072531309603351 8.0000000000000000 133
4.1436287075113158  -12.6776096309464386 160.7218259868695327 0.1072524028090727 7.9999999999999982 134
4.1745512320289562  -12.6776108359728799 160.7218524020735799 0.1072517368058009 8.0000000000000000 135
4.2054737634927202  -12.6776119164512835 160.7218760904669637 0.1072511276029328 8.0000000000000000 136
4.2363963012315882  -12.6776128853534846 160.7218973356746687 0.1072505703179332 8.0000000000000000 137
4.2673188446395969  -12.6776137542893323 160.7219163915861486 0.1072500604923068 7.9999999999999991 138
4.2982413931695014  -12.6776145336509778 160.7219334855002444 0.1072495940542709 7.9999999999999973 139
4.3291639463270712  -12.6776152327417151 160.7219488209336191 0.1072491672847718 7.9999999999999991 140
4.3600865036659240  -12.6776158598910342 160.7219625801297980 0.1072487767865403 7.9999999999999991 141
4.3910090647828852  -12.6776164225574099 160.7219749263013284 0.1072484194559061 7.9999999999999991 142
4.4219316293137867  -12.6776169274201607 160.7219860056333403 0.1072480924571228 8.0000000000000018 143
4.4528541969296809  -12.6776173804614842 160.7219959490737722 0.1072477931989712 8.0000000000000000 144
4.4837767673334215  -12.6776177870398232 160.7220048739345657 0.1072475193134383 7.9999999999999982 145
4.5146993402565787  -12.6776181519554143 160.7220128853226129 0.1072472686362820 7.9999999999999991 146
4.5456219154566559  -12.6776184795088938 160.7220200774190459 0.1072470391893122 8.0000000000000036 147
4.5765444927145769  -12.6776187735536752 160.7220265346238364 0.1072468291642330 8.0000000000000000 148
4.6074670718324144  -12.6776190375428612 160.7220323325794595 0.1072466369079087 8.0000000000000000 149
4.6383896526313402  -12.6776192745711107 160.7220375390859317 0.1072464609089219 8.0000000000000018 150
4.6693122349497846  -12.6776194874121124 160.7220422149201511 0.1072462997853120 8.0000000000000000 151
4.7002348186417544  -12.6776196785521673 160.7220464145689220 0.1072461522733872 8.0000000000000000 152
4.7311574035753328  -12.6776198502201503 160.7220501868843030 0.1072460172175139 8.0000000000000000 153
4.7620799896313208  -12.6776200044143543 160.7220535756706568 0.1072458935607989 8.0000000000000018 154
4.7930025767019986  -12.6776201429265392 160.7220566202100827 0.1072457803365827 7.9999999999999982 155
4.8239251646900243  -12.6776202673634373 160.7220593557325969 0.1072456766606749 8.0000000000000000 156
4.8548477535074266  -12.6776203791659547 160.7220618138368593 0.1072455817242624 8.0000000000000000 157
4.8857703430747037  -12.6776204796264516 160.7220640228674142 0.1072454947874365 8.0000000000000000 158
4.9166929333200002  -12.6776205699041427 160.7220660082518862 0.1072454151732787 8.0000000000000000 159
4.9476155241783744  -12.6776206510389216 160.7220677928036707 0.1072453422624606 8.0000000000000018 160
4.9785381155911281  -12.6776207239637060 160.7220693969918557 0.1072452754883096 7.9999999999999973 161
5.0094607075052044  -12.6776207895155721 160.7220708391848802 0.1072452143323032 8.0000000000000000 162
5.0403832998726434  -12.6776208484456081 160.7220721358667106 0.1072451583199495 8.0000000000000036 163
5.0713058926500967  -12.6776209014278294 160.7220733018315855 0.1072451070170252 7.9999999999999991 164
5.1022284857983706  -12.6776209490671796 160.7220743503591507 0.1072450600261373 8.0000000000000000 165
5.1331510792820376  -12.6776209919066023 160.7220752933698407 0.1072450169835796 7.9999999999999982 166
5.1640736730690699  -12.6776210304334800 160.7220761415653101 0.1072449775564609 8.0000000000000000 167
5.1949962671305112  -12.6776210650853347 160.7220769045539441 0.1072449414400789 8.0000000000000000 168
5.2259188614401779  -12.6776210962549722 160.7220775909629538 0.1072449083555203 7.9999999999999973 169
5.2568414559743992  -12.6776211242951042 160.7220782085399549 0.1072448780474662 7.9999999999999982 170
5.2877640507117700  -12.6776211495224373 160.7220787642426956 0.1072448502821855 8.0000000000000000 171
5.3186866456329369  -12.6776211722213858 160.7220792643202572 0.1072448248457004 7.9999999999999991 172
5.3496092407203975  -12.6776211926474041 160.7220797143859556 0.1072448015421085 8.0000000000000018 173
5.3805318359583252  -12.6776212110299262 160.7220801194822002 0.1072447801920487 7.9999999999999991 174
5.4114544313324053  -12.6776212275750684 160.7220804841394113 0.1072447606312977 8.0000000000000018 175
5.4423770268296954  -12.6776212424679819 160.7220808124277767 0.1072447427094867 8.0000000000000000 176
5.4732996224384820  -12.6776212558750352 160.7220811080048861 0.1072447262889270 8.0000000000000018 177
5.5042222181481808  -12.6776212679456926 160.7220813741573693 0.1072447112435365 7.9999999999999982 178
5.5351448139492101  -12.6776212788142928 160.7220816138393502 0.1072446974578567 7.9999999999999982 179
5.5660674098329048  -12.6776212886015500 160.7220818297059282 0.1072446848261542 8.0000000000000000 180
5.5969900057914295  -12.6776212974159606 160.7220820241435604 0.1072446732515978 7.9999999999999991 181
5.6279126018176902  -12.6776213053550517 160.7220821992980859 0.1072446626455066 8.0000000000000018 182
5.6588351979052733  -12.6776213125064956 160.7220823570982589 0.1072446529266607 8.0000000000000000 183
5.6897577940483748  -12.6776213189491109 160.7220824992786561 0.1072446440206715 7.9999999999999991 184
5.7206803902417418  -12.6776213247537690 160.7220826273990042 0.1072446358594053 7.9999999999999982 185
5.7516029864806226  -12.6776213299842002 160.7220827428620851 0.1072446283804547 7.9999999999999982 186
5.7825255827607194  -12.6776213346977062 160.7220828469293679 0.1072446215266564 8.0000000000000000 187
5.8134481790781392  -12.6776213389458299 160.7220829407356746 0.1072446152456485 7.9999999999999982 188
5.8443707754293595  -12.6776213427749305 160.7220830253018846 0.1072446094894663 7.9999999999999982 189
5.8752933718111935  -12.6776213462267169 160.7220831015464739 0.1072446042141716 8.0000000000000000 190
5.9062159682207582  -12.6776213493387004 160.7220831702957184 0.1072445993795137 8.0000000000000018 191
5.9371385646554389  -12.6776213521446408 160.7220832322933006 0.1072445949486188 8.0000000000000018 192
5.9680611611128755  -12.6776213546749048 160.7220832882082959 0.1072445908877062 8.0000000000000000 193
