 # inv_tmp, energy, phys_var, phys_doublon, phys_num, step_i
0.0409588964877965  -0.8294405244996933 13.5362699744606907 0.9033875045733960 8.0000000000000018 1
0.0810370232770367  -1.3601546335855130 15.2756524831797833 0.8957446578702821 7.9999999999999982 2
0.1202199176289942  -1.9085352771273456 17.6573837700090728 0.8845833325905404 8.0000000000000000 3
0.1584954217646398  -2.4746440681404769 20.7547547449047833 0.8696887578901369 8.0000000000000000 4
0.1958517421050145  -3.0590301241132849 24.6366184108334281 0.8508319388723167 7.9999999999999991 5
0.2322778802576302  -3.6622589576340205 29.3599415835335762 0.8277887253424896 7.9999999999999982 6
0.2677672330928066  -4.2842165499304290 34.9589893871293569 0.8003834726036566 8.0000000000000000 7
0.3023243039591111  -4.9233005433925445 41.4321161852063824 0.7685552945873951 8.0000000000000000 8
0.3359733016303724  -5.5756856650563629 48.7286995285053166 0.7324356199573350 7.9999999999999991 9
0.3687662722966058  -6.2348948439449909 56.7401018653087661 0.6924166618228360 8.0000000000000018 10
0.4007878601360527  -6.8918821855826931 65.2988226344471627 0.6491860409747772 8.0000000000000000 11
0.4321543245249030  -7.5357163818384851 74.1885141964547472 0.6037075935520184 7.9999999999999991 12
0.4630061077096276  -8.1547667883158770 83.1643812781649672 0.5571432273132366 8.0000000000000000 13
0.4934954191832734  -8.7381153128827975 91.9798746597199539 0.5107304775082779 8.0000000000000000 14
0.5237719483784975  -9.2768360216207313 100.4133110017237129 0.4656458341666918 8.0000000000000000 15
0.5539701578820342  -9.7648444500042437 108.2882954255998413 0.4228872251839685 8.0000000000000000 16
0.5842006322848492  -10.1991838437826399 115.4843459159369274 0.3831994090416911 8.0000000000000000 17
0.6145463337045965  -10.5797978534596151 121.9374777912025536 0.3470496373725824 8.0000000000000000 18
0.6450631636153824  -10.9089598404931110 127.6331299563904054 0.3146461095006282 8.0000000000000000 19
0.6757834337692578  -11.1905601723551023 132.5949142907626594 0.2859837059261180 7.9999999999999982 20
0.7067207326247068  -11.4294154128112417 136.8723926908490114 0.2609007170105379 8.0000000000000018 21
0.7378749885193945  -11.6306971839356361 140.5300756098569650 0.2391341209401336 8.0000000000000000 22
0.7692369886671684  -11.7995165049235169 143.6387209842599759 0.2203662192164663 8.0000000000000018 23
0.8007920212192363  -11.9406571595433402 146.2691558061309820 0.2042599630247071 8.0000000000000018 24
0.8325225887859417  -12.0584304540185965 148.4883402445377101 0.1904832774688996 8.0000000000000018 25
0.8644102961985691  -12.1566180188750899 150.3571870378195854 0.1787241827265026 7.9999999999999982 26
0.8964370762461905  -12.2384723154510198 151.9296295781218191 0.1686989574234996 8.0000000000000018 27
0.9285859220599041  -12.3067510174759924 153.2525055750359115 0.1601554480734710 8.0000000000000000 28
0.9608412726756762  -12.3637683448860400 154.3659260458413200 0.1528732378461763 7.9999999999999991 29
0.9931891673128324  -12.4114522939629985 155.3038977111373811 0.1466619498003628 8.0000000000000000 30
1.0256172536906862  -12.4514011215127702 156.0950468811893188 0.1413585712615965 7.9999999999999982 31
1.0581147103269977  -12.4849354945850486 156.7633520490471142 0.1368243803243227 7.9999999999999991 32
1.0906721231807313  -12.5131446905637880 157.3288332064151405 0.1329418325602829 8.0000000000000018 33
1.1232813427265167  -12.5369264257029869 157.8081724934610577 0.1296116124393693 7.9999999999999982 34
1.1559353375718175  -12.5570205570871316 158.2152572034690934 0.1267499531011046 8.0000000000000000 35
1.1886280539939467  -12.5740372339947122 158.5616456683885644 0.1242862648853014 8.0000000000000000 36
1.2213542863716296  -12.5884802024459646 158.8569615880280708 0.1221610754559431 8.0000000000000000 37
1.2541095607013946  -12.6007659789268764 159.1092246348599133 0.1203242635999750 8.0000000000000000 38
1.2868900316958747  -12.6112395611697572 159.3251258030142594 0.1187335586638201 8.0000000000000000 39
1.3196923929853168  -12.6201872688146182 159.5102557032040238 0.1173532739303623 8.0000000000000000 40
1.3525137994276850  -12.6278472239604724 159.6692932870905111 0.1161532423090629 8.0000000000000000 41
1.3853518003034324  -12.6344179013601856 159.8061615846518464 0.1151079247794455 8.0000000000000000 42
1.4182042821140703  -12.6400651052912032 159.9241561096903013 0.1141956650270988 8.0000000000000000 43
1.4510694197452738  -12.6449276668292327 160.0260507127803749 0.1133980670090870 7.9999999999999991 44
1.4839456348487441  -12.6491221015475706 160.1141848753795216 0.1126994754257981 8.0000000000000000 45
1.5168315604135858  -12.6527464228888320 160.1905357560955849 0.1120865420737473 8.0000000000000000 46
1.5497260106203734  -12.6558832695662815 160.2567777190402012 0.1115478637271033 7.9999999999999991 47
1.5826279551896016  -12.6586024752096726 160.3143315867129672 0.1110736795233221 8.0000000000000000 48
1.6155364975457529  -12.6609631839806660 160.3644054549647819 0.1106556178219955 8.0000000000000000 49
1.6484508562164766  -12.6630155960608608 160.4080285736504834 0.1102864841942108 8.0000000000000000 50
1.6813703489728342  -12.6648024109101307 160.4460795225051015 0.1099600836175319 8.0000000000000000 51
1.7142943792915668  -12.6663600232872824 160.4793096875890797 0.1096710711355157 8.0000000000000000 52
1.7472224247847938  -12.6677195166242598 160.5083628606506068 0.1094148262249906 8.0000000000000000 53
1.7801540272975485  -12.6689074899629794 160.5337916345740155 0.1091873469304114 7.9999999999999991 54
1.8130887844202446  -12.6699467479049765 160.5560711465332133 0.1089851604999084 7.9999999999999991 55
1.8460263422026624  -12.6708568775690313 160.5756106214388979 0.1088052478157898 8.0000000000000000 56
1.8789663888893713  -12.6716547321443507 160.5927630875502246 0.1086449793732674 8.0000000000000000 57
1.9119086495245747  -12.6723548370604213 160.6078335702838729 0.1085020609418992 8.0000000000000018 58
1.9448528812979966  -12.6729697319041854 160.6210860164930523 0.1083744873587090 8.0000000000000018 59
1.9777988695232811  -12.6735102588688484 160.6327491575482327 0.1082605031618041 7.9999999999999991 60
2.0107464241570980  -12.6739858066102027 160.6430214835752679 0.1081585689881970 8.0000000000000000 61
2.0436953767811938  -12.6744045168312489 160.6520754717141699 0.1080673328373822 8.0000000000000000 62
2.0766455779814317  -12.6747734596464845 160.6600611870470061 0.1079856054495574 7.9999999999999991 63
2.1095968950678472  -12.6750987827384769 160.6671093549204556 0.1079123391695827 8.0000000000000000 64
2.1425492100880978  -12.6753858384679230 160.6733339869743986 0.1078466097692551 8.0000000000000000 65
2.1755024180937781  -12.6756392923990511 160.6788346296399084 0.1077876007848558 7.9999999999999982 66
2.2084564256250268  -12.6758632161266043 160.6836982926616315 0.1077345899971937 8.0000000000000000 67
2.2414111493839028  -12.6760611668155327 160.6880011059154469 0.1076869377399570 7.9999999999999982 68
2.2743665150712755  -12.6762362554723396 160.6918097450849530 0.1076440767711127 8.0000000000000000 69
2.3073224563655832  -12.6763912056415791 160.6951826603465747 0.1076055034830148 8.0000000000000000 70
2.3402789140248932  -12.6765284039514050 160.6981711368734977 0.1075707702611602 8.0000000000000000 71
2.3732358350962941  -12.6766499437074280 160.7008202115057998 0.1075394788302900 7.9999999999999991 72
2.4061931722188676  -12.6767576625472245 160.7031694662028940 0.1075112744507015 8.0000000000000000 73
2.4391508830083954  -12.6768531750114750 160.7052537157665029 0.1074858408479762 7.9999999999999982 74
2.4721089295135350  -12.6769379007571459 160.7071036046979486 0.1074628957764793 8.0000000000000000 75
2.5050672777346201  -12.6770130890282839 160.7087461258402072 0.1074421871314675 8.0000000000000000 76
2.5380258971973775  -12.6770798399082274 160.7102050715969312 0.1074234895368923 8.0000000000000036 77
2.5709847605749072  -12.6771391227991046 160.7115014269445794 0.1074066013463637 8.0000000000000000 78
2.6039438433521034  -12.6771917925095483 160.7126537121258991 0.1073913420035504 8.0000000000000000 79
2.6369031235274720  -12.6772386032759297 160.7136782817832170 0.1073775497157796 8.0000000000000018 80
2.6698625813479309  -12.6772802209959465 160.7145895863354212 0.1073650794009768 8.0000000000000018 81
2.7028221990727324  -12.6773172339135396 160.7154004005862475 0.1073538008735268 8.0000000000000018 82
2.7357819607631395  -12.6773501619605362 160.7161220238580199 0.1073435972392841 8.0000000000000000 83
2.7687418520949008  -12.6773794649316702 160.7167644553560990 0.1073343634739386 8.0000000000000000 84
2.8017018601909203  -12.6774055496452611 160.7173365479592348 0.1073260051623539 8.0000000000000000 85
2.8346619734718548  -12.6774287762208147 160.7178461432016547 0.1073184373794236 8.0000000000000018 86
2.8676221815226128  -12.6774494635871982 160.7183001898400221 0.1073115836955089 8.0000000000000000 87
2.9005824749730045  -12.6774678943194079 160.7187048480790850 0.1073053752916922 7.9999999999999982 88
2.9335428453909689  -12.6774843188891637 160.7190655812570981 0.1072997501719535 8.0000000000000000 89
2.9665032851870032  -12.6774989594030121 160.7193872365548089 0.1072946524609953 7.9999999999999991 90
2.9994637875285748  -12.6775120128921195 160.7196741160898341 0.1072900317778426 8.0000000000000000 91
3.0324243462634359  -12.6775236542093594 160.7199300395797081 0.1072858426765593 7.9999999999999991 92
3.0653849558508783  -12.6775340385823707 160.7201583996085787 0.1072820441464784 8.0000000000000000 93
3.0983456113000889  -12.6775433038646099 160.7203622103971838 0.1072785991652603 8.0000000000000000 94
3.1313063081148376  -12.6775515725215175 160.7205441508649528 0.1072754742988917 8.0000000000000000 95
3.1642670422438410  -12.6775589533837838 160.7207066026716689 0.1072726393434373 8.0000000000000018 96
3.1972278100361935  -12.6775655431959500 160.7208516838410901 0.1072700670039624 8.0000000000000000 97
3.2301886082013396  -12.6775714279849261 160.7209812784948326 0.1072677326065809 8.0000000000000000 98
3.2631494337731106  -12.6775766842699475 160.7210970631579130 0.1072656138400448 7.9999999999999991 99
3.2961102840774110  -12.6775813801328745 160.7212005300427222 0.1072636905237076 8.0000000000000000 100
3.3290711567031606  -12.6775855761654128 160.7212930076663326 0.1072619443990452 8.0000000000000000 101
3.3620320494761775  -12.6775893263076700 160.7213756791149422 0.1072603589422423 7.9999999999999982 102
3.3949929604356801  -12.6775926785910009 160.7214495982303220 0.1072589191956252 8.0000000000000000 103
3.4279538878131546  -12.6775956757961303 160.7215157039597671 0.1072576116159679 8.0000000000000000 104
3.4609148300133352  -12.6775983560366470 160.7215748330829683 0.1072564239379196 8.0000000000000000 105
3.4938757855970892  -12.6776007532763657 160.7216277315038724 0.1072553450509862 7.9999999999999982 106
3.5268367532660112  -12.6776028977882973 160.7216750642716363 0.1072543648886740 8.0000000000000000 107
3.5597977318485525  -12.6776048165619404 160.7217174244777311 0.1072534743285496 7.9999999999999991 108
3.5927587202875286  -12.6776065336648678 160.7217553411575182 0.1072526651021057 8.0000000000000000 109
3.6257197176288751  -12.6776080705637604 160.7217892863093880 0.1072519297134383 8.0000000000000000 110
3.6586807230115097  -12.6776094464096314 160.7218196811325583 0.1072512613658481 8.0000000000000000 111
3.6916417356582079  -12.6776106782912130 160.7218469015719506 0.1072506538955692 8.0000000000000000 112
3.7246027548673784  -12.6776117814602145 160.7218712832478218 0.1072501017119133 8.0000000000000018 113
3.7575637800056487  -12.6776127695315530 160.7218931258408361 0.1072495997431917 8.0000000000000000 114
3.7905248105011888  -12.6776136546614637 160.7219126969929448 0.1072491433878410 8.0000000000000000 115
3.8234858458376908  -12.6776144477058761 160.7219302357782169 0.1072487284702394 8.0000000000000000 116
3.8564468855489387  -12.6776151583614247 160.7219459557930463 0.1072483512007516 8.0000000000000000 117
3.8894079292139199  -12.6776157952908495 160.7219600479062365 0.1072480081395885 8.0000000000000000 118
3.9223689764524088  -12.6776163662347123 160.7219726827092359 0.1072476961641085 8.0000000000000000 119
3.9553300269209957  -12.6776168781108431 160.7219840126978170 0.1072474124392253 8.0000000000000000 120
3.9882910803094904  -12.6776173371028982 160.7219941742156948 0.1072471543906203 8.0000000000000000 121
4.0212521363376972  -12.6776177487392836 160.7220032891873416 0.1072469196804894 7.9999999999999982 122
4.0542131947524860  -12.6776181179634673 160.7220114666617690 0.1072467061855781 7.9999999999999991 123
4.0871742553251691  -12.6776184491966308 160.7220188041889628 0.1072465119772862 7.9999999999999982 124
4.1201353178491207  -12.6776187463935557 160.7220253890476442 0.1072463353036418 8.0000000000000000 125
4.1530963821376359  -12.6776190130924213 160.7220312993397329 0.1072461745729679 8.0000000000000000 126
4.1860574480219999  -12.6776192524592215 160.7220366049671156 0.1072460283390777 8.0000000000000000 127
4.2190185153497364  -12.6776194673274176 160.7220413685028575 0.1072458952878551 8.0000000000000000 128
4.2519795839830445  -12.6776196602332547 160.7220456459687625 0.1072457742250868 8.0000000000000000 129
4.2849406537973680  -12.6776198334473413 160.7220494875297732 0.1072456640654290 8.0000000000000000 130
4.3179017246801195  -12.6776199890027836 160.7220529381131371 0.1072455638224006 8.0000000000000000 131
4.3508627965295190  -12.6776201287203438 160.7220560379622043 0.1072454725993060 8.0000000000000000 132
4.3838238692535514  -12.6776202542308560 160.7220588231300553 0.1072453895810000 8.0000000000000018 133
4.4167849427690262  -12.6776203669952920 160.7220613259211746 0.1072453140264156 8.0000000000000000 134
4.4497460170007175  -12.6776204683226652 160.7220635752857447 0.1072452452617833 8.0000000000000000 135
4.4827070918806058  -12.6776205593859839 160.7220655971718202 0.1072451826744768 8.0000000000000000 136
4.5156681673471750  -12.6776206412366026 160.7220674148405806 0.1072451257074264 8.0000000000000000 137
4.5486292433447915  -12.6776207148169391 160.7220690491474215 0.1072450738540481 7.9999999999999982 138
4.5815903198231345  -12.6776207809719121 160.7220705187938847 0.1072450266536383 7.9999999999999964 139
4.6145513967366893  -12.6776208404591468 160.7220718405524167 0.1072449836871933 7.9999999999999982 140
4.6475124740442793  -12.6776208939580890 160.7220730294679925 0.1072449445736120 8.0000000000000000 141
4.6804735517086540  -12.6776209420781676 160.7220740990377124 0.1072449089662474 8.0000000000000036 142
4.7134346296961107  -12.6776209853660919 160.7220750613718963 0.1072448765497739 8.0000000000000000 143
4.7463957079761547  -12.6776210243123870 160.7220759273386079 0.1072448470373419 8.0000000000000018 144
4.7793567865211894  -12.6776210593572181 160.7220767066918370 0.1072448201679926 8.0000000000000000 145
4.8123178653062437  -12.6776210908956433 160.7220774081877153 0.1072447957043089 8.0000000000000000 146
4.8452789443087125  -12.6776211192822590 160.7220780396871760 0.1072447734302810 7.9999999999999982 147
4.8782400235081411  -12.6776211448354204 160.7220786082489212 0.1072447531493671 8.0000000000000000 148
4.9112011028860101  -12.6776211678409503 160.7220791202117312 0.1072447346827298 8.0000000000000000 149
4.9441621824255568  -12.6776211885555448 160.7220795812692700 0.1072447178676349 8.0000000000000000 150
4.9771232621116042  -12.6776212072097447 160.7220799965361948 0.1072447025559942 7.9999999999999991 151
5.0100843419304102  -12.6776212240106325 160.7220803706074435 0.1072446886130420 8.0000000000000000 152
5.0430454218695333  -12.6776212391442620 160.7220807076122355 0.1072446759161314 8.0000000000000000 153
5.0760065019177043  -12.6776212527777972 160.7220810112611673 0.1072446643536404 7.9999999999999982 154
5.1089675820647207  -12.6776212650614717 160.7220812848894980 0.1072446538239763 8.0000000000000000 155
5.1419286623013400  -12.6776212761303029 160.7220815314955189 0.1072446442346714 8.0000000000000000 156
5.1748897426191895  -12.6776212861056585 160.7220817537747735 0.1072446355015607 8.0000000000000018 157
5.2078508230106886  -12.6776212950966602 160.7220819541510650 0.1072446275480330 8.0000000000000000 158
5.2408119034689644  -12.6776213032014162 160.7220821348041682 0.1072446203043508 7.9999999999999982 159
5.2737729839877936  -12.6776213105081652 160.7220822976949819 0.1072446137070317 8.0000000000000000 160
5.3067340645615380  -12.6776213170962535 160.7220824445868175 0.1072446076982851 8.0000000000000000 161
5.3396951451850843  -12.6776213230370693 160.7220825770666011 0.1072446022255005 8.0000000000000000 162
5.3726562258538042  -12.6776213283948245 160.7220826965620404 0.1072445972407816 8.0000000000000018 163
5.4056173065634985  -12.6776213332272967 160.7220828043579104 0.1072445927005222 7.9999999999999982 164
5.4385783873103630  -12.6776213375864906 160.7220829016107473 0.1072445885650215 7.9999999999999982 165
5.4715394680909490  -12.6776213415192025 160.7220829893614962 0.1072445847981328 8.0000000000000000 166
5.5045005489021310  -12.6776213450675463 160.7220830685472492 0.1072445813669445 8.0000000000000000 167
5.5374616297410757  -12.6776213482694455 160.7220831400118186 0.1072445782414899 7.9999999999999982 168
5.5704227106052109  -12.6776213511590434 160.7220832045150019 0.1072445753944827 7.9999999999999982 169
5.6033837914922087  -12.6776213537670870 160.7220832627412506 0.1072445728010771 7.9999999999999982 170
5.6363448723999534  -12.6776213561212607 160.7220833153068611 0.1072445704386484 8.0000000000000000 171
5.6693059533265320  -12.6776213582464941 160.7220833627671084 0.1072445682865944 8.0000000000000000 172
5.7022670342702053  -12.6776213601652614 160.7220834056222998 0.1072445663261538 8.0000000000000000 173
5.7352281152293951  -12.6776213618977991 160.7220834443231752 0.1072445645402417 8.0000000000000000 174
5.7681891962026732  -12.6776213634623431 160.7220834792760229 0.1072445629132991 8.0000000000000000 175
5.8011502771887420  -12.6776213648753195 160.7220835108469714 0.1072445614311566 7.9999999999999991 176
5.8341113581864246  -12.6776213661515467 160.7220835393660536 0.1072445600809098 7.9999999999999991 177
5.8670724391946525  -12.6776213673043721 160.7220835651308164 0.1072445588508062 8.0000000000000000 178
5.9000335202124568  -12.6776213683458217 160.7220835884093901 0.1072445577301423 7.9999999999999982 179
5.9329946012389581  -12.6776213692867614 160.7220836094438710 0.1072445567091697 8.0000000000000018 180
5.9659556822733588  -12.6776213701369613 160.7220836284522250 0.1072445557790093 8.0000000000000000 181
5.9989167633149352  -12.6776213709052463 160.7220836456313009 0.1072445549315745 8.0000000000000000 182
6.0318778443630281  -12.6776213715995745 160.7220836611584218 0.1072445541594995 7.9999999999999991 183
6.0648389254170398  -12.6776213722271276 160.7220836751939146 0.1072445534560754 8.0000000000000000 184
6.0978000064764322  -12.6776213727943698 160.7220836878820478 0.1072445528151915 8.0000000000000000 185
6.1307610875407104  -12.6776213733071508 160.7220836993532771 0.1072445522312814 8.0000000000000000 186
6.1637221686094295  -12.6776213737707337 160.7220837097250978 0.1072445516992751 7.9999999999999982 187
6.1966832496821818  -12.6776213741898829 160.7220837191038356 0.1072445512145543 8.0000000000000000 188
6.2296443307586014  -12.6776213745688828 160.7220837275851579 0.1072445507729120 8.0000000000000000 189
6.2626054118383534  -12.6776213749116131 160.7220837352556373 0.1072445503705160 8.0000000000000000 190
6.2955664929211332  -12.6776213752215661 160.7220837421933197 0.1072445500038756 8.0000000000000000 191
6.3285275740066647  -12.6776213755019072 160.7220837484687763 0.1072445496698108 8.0000000000000000 192
6.3614886550946981  -12.6776213757554768 160.7220837541456149 0.1072445493654246 7.9999999999999982 193
