 # inv_tmp, energy, phys_var, phys_doublon, phys_num, step_i
0.0548614614874703  -0.4554633758120978 3.3986421848628980 0.0000000000000000 0.0000000000000000 1
0.1091969309647001  -0.6310661358520395 3.6415715714593042 0.0000000000000000 0.0000000000000000 2
0.1630055329690292  -0.8085664990279225 3.9417115583684765 0.0000000000000000 0.0000000000000000 3
0.2162891239102656  -0.9875278764319857 4.3001553052387340 0.0000000000000000 0.0000000000000000 4
0.2690521199507042  -1.1675198167262351 4.7175088483884240 0.0000000000000000 0.0000000000000000 5
0.3213012810860603  -1.3481237281024350 5.1939003284547756 0.0000000000000000 0.0000000000000000 6
0.3730454617521796  -1.5289379858491237 5.7289995886739256 0.0000000000000000 0.0000000000000000 7
0.4242953395761471  -1.7095822357684001 6.3220457822236895 0.0000000000000000 0.0000000000000000 8
0.4750631347660015  -1.8897007212865193 6.9718802137918345 0.0000000000000000 0.0000000000000000 9
0.5253623329628581  -2.0689644939085401 7.6769814626938633 0.0000000000000000 0.0000000000000000 10
0.5752074240354874  -2.2470724137293274 8.4354999158966706 0.0000000000000000 0.0000000000000000 11
0.6246136681859540  -2.4237509078250730 9.2452891800609329 0.0000000000000000 0.0000000000000000 12
0.6735968988245051  -2.5987525259879272 10.1039324184388910 0.0000000000000000 0.0000000000000000 13
0.7221733690145271  -2.7718534099486578 11.0087624233162664 0.0000000000000000 0.0000000000000000 14
0.7703596450263597  -2.9428498671857102 11.9568751189733327 0.0000000000000000 0.0000000000000000 15
0.8181725468975181  -3.1115543064148170 12.9451371100054047 0.0000000000000000 0.0000000000000000 16
0.8656291321657305  -3.2777908420606123 13.9701887538756928 0.0000000000000000 0.0000000000000000 17
0.9127467154451274  -3.4413909037662811 15.0284449546398751 0.0000000000000000 0.0000000000000000 18
0.9595429135818944  -3.6021891904231209 16.1160963673241611 0.0000000000000000 0.0000000000000000 19
1.0060357040469661  -3.7600202846604214 17.2291139094550445 0.0000000000000000 0.0000000000000000 20
1.0522434832248035  -3.9147161940912039 18.3632593650742599 0.0000000000000000 0.0000000000000000 21
1.0981851114653496  -4.0661050132879257 19.5141044375352486 0.0000000000000000 0.0000000000000000 22
1.1438799331872858  -4.2140108112802173 20.6770598961388146 0.0000000000000000 0.0000000000000000 23
1.1893477628317555  -4.3582547510875154 21.8474155375093311 0.0000000000000000 0.0000000000000000 24
1.2346088308214778  -4.4986573494142732 23.0203906420221784 0.0000000000000000 0.0000000000000000 25
1.2796836875370923  -4.6350416954054872 24.1911935614106923 0.0000000000000000 0.0000000000000000 26
1.3245930672790223  -4.7672373757223045 25.3550881409888689 0.0000000000000000 0.0000000000000000 27
1.3693577178302669  -4.8950848056937346 26.5074639607204041 0.0000000000000000 0.0000000000000000 28
1.4139982042109598  -5.0184396467216175 27.6439069486200815 0.0000000000000000 0.0000000000000000 29
1.4585346972502107  -5.1371769990241356 28.7602668156884604 0.0000000000000000 0.0000000000000000 30
1.5029867585510728  -5.2511950935415932 29.8527179806983654 0.0000000000000000 0.0000000000000000 31
1.5473731332831280  -5.3604182620183218 30.9178111540721119 0.0000000000000000 0.0000000000000000 32
1.5917115611230848  -5.4647990327038345 31.9525134610716748 0.0000000000000000 0.0000000000000000 33
1.6360186137930246  -5.5643192728385396 32.9542358161259656 0.0000000000000000 0.0000000000000000 34
1.6803095652918920  -5.6589903705273876 33.9208471190697907 0.0000000000000000 0.0000000000000000 35
1.7245982983659069  -5.7488525114639835 34.8506756459962830 0.0000000000000000 0.0000000000000000 36
1.7688972482806975  -5.8339731558321164 35.7424986864083962 0.0000000000000000 0.0000000000000000 37
1.8132173827525562  -5.9144448552705455 36.5955219921802737 0.0000000000000000 0.0000000000000000 38
1.8575682151106898  -5.9903825687241783 37.4093509348868167 0.0000000000000000 0.0000000000000000 39
1.9019578464686759  -6.0619206406357922 38.1839554205760692 0.0000000000000000 0.0000000000000000 40
1.9463930318901244  -6.1292095976990630 38.9196306060202488 0.0000000000000000 0.0000000000000000 41
1.9908792652001601  -6.1924129043328824 39.6169553294529280 0.0000000000000000 0.0000000000000000 42
2.0354208771472608  -6.2517037953020793 40.2767499479224185 0.0000000000000000 0.0000000000000000 43
2.0800211419691466  -6.3072622794068378 40.9000349983833544 0.0000000000000000 0.0000000000000000 44
2.1246823879688268  -6.3592723833132627 41.4879918021995024 0.0000000000000000 0.0000000000000000 45
2.1694061083766076  -6.4079196812277344 42.0419258384095400 0.0000000000000000 0.0000000000000000 46
2.2141930694883150  -6.4533891354482371 42.5632334385708901 0.0000000000000000 0.0000000000000000 47
2.2590434137728477  -6.4958632555314946 43.0533721172088306 0.0000000000000000 0.0000000000000000 48
2.3039567562935250  -6.5355205701242660 43.5138346530017941 0.0000000000000000 0.0000000000000000 49
2.3489322733626317  -6.5725343953166622 43.9461268783423193 0.0000000000000000 0.0000000000000000 50
2.3939687828346803  -6.6070718763602985 44.3517490169930753 0.0000000000000000 0.0000000000000000 51
2.4390648158381874  -6.6392932753040741 44.7321803272086669 0.0000000000000000 0.0000000000000000 52
2.4842186800523365  -6.6693514750347340 45.0888667557411225 0.0000000000000000 0.0000000000000000 53
2.5294285148618343  -6.6973916698726352 45.4232112810134510 0.0000000000000000 0.0000000000000000 54
2.5746923388813636  -6.7235512138091513 45.7365666159833353 0.0000000000000000 0.0000000000000000 55
2.6200080904416181  -6.7479595992857133 46.0302299478671628 0.0000000000000000 0.0000000000000000 56
2.6653736616833568  -6.7707385417778880 46.3054394086540810 0.0000000000000000 0.0000000000000000 57
2.7107869269245040  -6.7920021481019255 46.5633719936535115 0.0000000000000000 0.0000000000000000 58
2.7562457659572801  -6.8118571491091435 46.8051426723542079 0.0000000000000000 0.0000000000000000 59
2.8017480829052950  -6.8304031801335441 47.0318044644623683 0.0000000000000000 0.0000000000000000 60
2.8472918212308969  -6.8477330951131137 47.2443492825429416 0.0000000000000000 0.0000000000000000 61
2.8928749754357650  -6.8639333026555640 47.4437093701075483 0.0000000000000000 0.0000000000000000 62
2.9384955999466555  -6.8790841144316710 47.6307591895560449 0.0000000000000000 0.0000000000000000 63
2.9841518156262339  -6.8932600981424166 47.8063176376701975 0.0000000000000000 0.0000000000000000 64
3.0298418142980648  -6.9065304289219487 47.9711504871822427 0.0000000000000000 0.0000000000000000 65
3.0755638616264545  -6.9189592344196216 48.1259729712715369 0.0000000000000000 0.0000000000000000 66
3.1213162986469141  -6.9306059299689711 48.2714524437535033 0.0000000000000000 0.0000000000000000 67
3.1670975422018683  -6.9415255412210666 48.4082110613746863 0.0000000000000000 0.0000000000000000 68
3.2129060844992559  -6.9517690124166363 48.5368284462030743 0.0000000000000000 0.0000000000000000 69
3.2587404919786493  -6.9613834991182433 48.6578442958232955 0.0000000000000000 0.0000000000000000 70
3.3045994036404975  -6.9704126447418515 48.7717609171238990 0.0000000000000000 0.0000000000000000 71
3.3504815289686833  -6.9788968406355778 48.8790456661133845 0.0000000000000000 0.0000000000000000 72
3.3963856455545880  -6.9868734697705355 48.9801332816196080 0.0000000000000000 0.0000000000000000 73
3.4423105965118954  -6.9943771343494880 49.0754281050962078 0.0000000000000000 0.0000000000000000 74
3.4882552877551762  -7.0014398678173206 49.1653061822411885 0.0000000000000000 0.0000000000000000 75
3.5342186852014934  -7.0080913318848985 49.2501172448724844 0.0000000000000000 0.0000000000000000 76
3.5801998119426428  -7.0143589992644726 49.3301865736286658 0.0000000000000000 0.0000000000000000 77
3.6261977454258121  -7.0202683228687075 49.4058167436762616 0.0000000000000000 0.0000000000000000 78
3.6722116146722841  -7.0258428922539782 49.4772892568049372 0.0000000000000000 0.0000000000000000 79
3.7182405975569655  -7.0311045780970947 49.5448660641532044 0.0000000000000000 0.0000000000000000 80
3.7642839181659080  -7.0360736654880478 49.6087909843972596 0.0000000000000000 0.0000000000000000 81
3.8103408442443389  -7.0407689768037596 49.6692910226113753 0.0000000000000000 0.0000000000000000 82
3.8564106847439348  -7.0452079849017331 49.7265775952118645 0.0000000000000000 0.0000000000000000 83
3.9024927874750155  -7.0494069173409262 49.7808476664695831 0.0000000000000000 0.0000000000000000 84
3.9485865368668391  -7.0533808523019390 49.8322848020462175 0.0000000000000000 0.0000000000000000 85
3.9946913518372460  -7.0571438068409051 49.8810601449036781 0.0000000000000000 0.0000000000000000 86
4.0408066837713035  -7.0607088180731736 49.9273333187745862 0.0000000000000000 0.0000000000000000 87
4.0869320146074424  -7.0640880178441474 49.9712532641797225 0.0000000000000000 0.0000000000000000 88
4.1330668550286171  -7.0672927014067186 50.0129590117497003 0.0000000000000000 0.0000000000000000 89
4.1792107427553669  -7.0703333905878667 50.0525803973633714 0.0000000000000000 0.0000000000000000 90
4.2253632409371269  -7.0732198918914566 50.0902387233612103 0.0000000000000000 0.0000000000000000 91
4.2715239366378244  -7.0759613499506502 50.1260473698357529 0.0000000000000000 0.0000000000000000 92
4.3176924394115650  -7.0785662967112462 50.1601123597471599 0.0000000000000000 0.0000000000000000 93
4.3638683799640834  -7.0810426966973132 50.1925328813630358 0.0000000000000000 0.0000000000000000 94
4.4100514088956304  -7.0833979886823988 50.2234017712820773 0.0000000000000000 0.0000000000000000 95
4.4562411955209553  -7.0856391240632366 50.2528059610697255 0.0000000000000000 0.0000000000000000 96
4.5024374267621168  -7.0877726022087515 50.2808268903158506 0.0000000000000000 0.0000000000000000 97
4.5486398061099962  -7.0898045030343919 50.3075408887160762 0.0000000000000000 0.0000000000000000 98
4.5948480526504758  -7.0917405170311119 50.3330195295835026 0.0000000000000000 0.0000000000000000 99
4.6410619001514180  -7.0935859729590929 50.3573299570141515 0.0000000000000000 0.0000000000000000 100
4.6872810962067488  -7.0953458633986024 50.3805351887585431 0.0000000000000000 0.0000000000000000 101
4.7335054014341198  -7.0970248683340884 50.4026943966917429 0.0000000000000000 0.0000000000000000 102
4.7797345887227749  -7.0986273769327992 50.4238631666265178 0.0000000000000000 0.0000000000000000 103
4.8259684425284712  -7.1001575076654406 50.4440937390763722 0.0000000000000000 0.0000000000000000 104
4.8722067582124415  -7.1016191269039419 50.4634352324481483 0.0000000000000000 0.0000000000000000 105
4.9184493414215531  -7.1030158661198595 50.4819338500259391 0.0000000000000000 0.0000000000000000 106
4.9646960075070385  -7.1043511377965514 50.4996330719997459 0.0000000000000000 0.0000000000000000 107
5.0109465809792511  -7.1056281501585605 50.5165738336919929 0.0000000000000000 0.0000000000000000 108
5.0572008949961438  -7.1068499208130120 50.5327946910426249 0.0000000000000000 0.0000000000000000 109
5.1034587908832325  -7.1080192893897358 50.5483319743290309 0.0000000000000000 0.0000000000000000 110
5.1497201176830192  -7.1091389292595295 50.5632199310183097 0.0000000000000000 0.0000000000000000 111
5.1959847317319277  -7.1102113584033262 50.5774908585781162 0.0000000000000000 0.0000000000000000 112
5.2422524962629655  -7.1112389494989428 50.5911752280059446 0.0000000000000000 0.0000000000000000 113
5.2885232810324245  -7.1122239392864861 50.6043017987766035 0.0000000000000000 0.0000000000000000 114
5.3347969619690616  -7.1131684372684205 50.6168977258510253 0.0000000000000000 0.0000000000000000 115
5.3810734208442836  -7.1140744337956807 50.6289886593396474 0.0000000000000000 0.0000000000000000 116
5.4273525449619839  -7.1149438075869540 50.6405988373656299 0.0000000000000000 0.0000000000000000 117
5.4736342268667473  -7.1157783327244006 50.6517511726306822 0.0000000000000000 0.0000000000000000 118
5.5199183640692446  -7.1165796851655045 50.6624673331465019 0.0000000000000000 0.0000000000000000 119
5.5662048587877049  -7.1173494488075582 50.6727678175585723 0.0000000000000000 0.0000000000000000 120
5.6124936177044384  -7.1180891211383157 50.6826720254557301 0.0000000000000000 0.0000000000000000 121
5.6587845517364475  -7.1188001185036214 50.6921983230282294 0.0000000000000000 0.0000000000000000 122
5.7050775758192191  -7.1194837810203966 50.7013641044090946 0.0000000000000000 0.0000000000000000 123
5.7513726087028889  -7.1201413771610271 50.7101858490075443 0.0000000000000000 0.0000000000000000 124
5.7976695727599665  -7.1207741080332241 50.7186791751195045 0.0000000000000000 0.0000000000000000 125
5.8439683938039204  -7.1213831113774564 50.7268588900788870 0.0000000000000000 0.0000000000000000 126
5.8902690009179324  -7.1219694653023442 50.7347390371926252 0.0000000000000000 0.0000000000000000 127
5.9365713262931958  -7.1225341917767890 50.7423329396842746 0.0000000000000000 0.0000000000000000 128
5.9828753050761616  -7.1230782598962508 50.7496532418546025 0.0000000000000000 0.0000000000000000 129
6.0291808752241955  -7.1236025889390628 50.7567119476509134 0.0000000000000000 0.0000000000000000 130
6.0754879773691091  -7.1241080512276529 50.7635204568235139 0.0000000000000000 0.0000000000000000 131
6.1217965546881175  -7.1245954748082632 50.7700895988339695 0.0000000000000000 0.0000000000000000 132
6.1681065527817509  -7.1250656459617741 50.7764296646677309 0.0000000000000000 0.0000000000000000 133
6.2144179195583114  -7.1255193115573485 50.7825504366927802 0.0000000000000000 0.0000000000000000 134
6.2607306051244862  -7.1259571812595892 50.7884612166950689 0.0000000000000000 0.0000000000000000 135
6.3070445616817441  -7.1263799295993042 50.7941708522126874 0.0000000000000000 0.0000000000000000 136
6.3533597434281921  -7.1267881979170085 50.7996877612813265 0.0000000000000000 0.0000000000000000 137
6.3996761064655496  -7.1271825961878097 50.8050199556957125 0.0000000000000000 0.0000000000000000 138
6.4459936087109524  -7.1275637047355751 50.8101750628845465 0.0000000000000000 0.0000000000000000 139
6.4923122098133206  -7.1279320758437565 50.8151603464888808 0.0000000000000000 0.0000000000000000 140
6.5386318710739975  -7.1282882352696699 50.8199827257281740 0.0000000000000000 0.0000000000000000 141
6.5849525553714461  -7.1286326836685987 50.8246487936318019 0.0000000000000000 0.0000000000000000 142
6.6312742270897544  -7.1289658979335959 50.8291648342088962 0.0000000000000000 0.0000000000000000 143
6.6775968520507414  -7.1292883324564524 50.8335368386240276 0.0000000000000000 0.0000000000000000 144
6.7239203974494597  -7.1296004203148780 50.8377705204411896 0.0000000000000000 0.0000000000000000 145
6.7702448317929020  -7.1299025743906963 50.8418713299954348 0.0000000000000000 0.0000000000000000 146
6.8165701248417490  -7.1301951884233539 50.8458444679459518 0.0000000000000000 0.0000000000000000 147
6.8628962475549713  -7.1304786380029084 50.8496948980620687 0.0000000000000000 0.0000000000000000 148
6.9092231720371364  -7.1307532815062844 50.8534273592891708 0.0000000000000000 0.0000000000000000 149
6.9555508714882919  -7.1310194609802995 50.8570463771390422 0.0000000000000000 0.0000000000000000 150
7.0018793201562470  -7.1312775029748501 50.8605562744459050 0.0000000000000000 0.0000000000000000 151
7.0482084932911704  -7.1315277193292550 50.8639611815265411 0.0000000000000000 0.0000000000000000 152
7.0945383671023334  -7.1317704079147113 50.8672650457808189 0.0000000000000000 0.0000000000000000 153
7.1408689187169330  -7.1320058533354596 50.8704716407658140 0.0000000000000000 0.0000000000000000 154
7.1872001261408380  -7.1322343275912523 50.8735845747755562 0.0000000000000000 0.0000000000000000 155
7.2335319682211967  -7.1324560907033874 50.8766072989552356 0.0000000000000000 0.0000000000000000 156
7.2798644246107855  -7.1326713913065554 50.8795431149778636 0.0000000000000000 0.0000000000000000 157
7.3261974757340207  -7.1328804672084836 50.8823951823087910 0.0000000000000000 0.0000000000000000 158
7.3725311027545288  -7.1330835459193498 50.8851665250822975 0.0000000000000000 0.0000000000000000 159
7.4188652875442358  -7.1332808451526928 50.8878600386130131 0.0000000000000000 0.0000000000000000 160
7.4652000126538471  -7.1334725732995308 50.8904784955629026 0.0000000000000000 0.0000000000000000 161
7.5115352612846866  -7.1336589298772433 50.8930245517841229 0.0000000000000000 0.0000000000000000 162
7.5578710172618102  -7.1338401059546825 50.8955007518559270 0.0000000000000000 0.0000000000000000 163
7.6042072650083377  -7.1340162845548640 50.8979095343332162 0.0000000000000000 0.0000000000000000 164
7.6505439895209220  -7.1341876410365757 50.9002532367231453 0.0000000000000000 0.0000000000000000 165
7.6968811763463423  -7.1343543434560566 50.9025341002050524 0.0000000000000000 0.0000000000000000 166
7.7432188115591130  -7.1345165529099148 50.9047542741080008 0.0000000000000000 0.0000000000000000 167
7.7895568817401015  -7.1346744238603357 50.9069158201597958 0.0000000000000000 0.0000000000000000 168
7.8358953739560810  -7.1348281044435549 50.9090207165196986 0.0000000000000000 0.0000000000000000 169
7.8822342757401902  -7.1349777367625817 50.9110708616073850 0.0000000000000000 0.0000000000000000 170
7.9285735750732345  -7.1351234571649957 50.9130680777387283 0.0000000000000000 0.0000000000000000 171
7.9749132603658195  -7.1352653965066830 50.9150141145795345 0.0000000000000000 0.0000000000000000 172
8.0212533204412395  -7.1354036804022742 50.9169106524267576 0.0000000000000000 0.0000000000000000 173
8.0675937445191241  -7.1355384294630051 50.9187593053268799 0.0000000000000000 0.0000000000000000 174
8.1139345221997736  -7.1356697595227017 50.9205616240398555 0.0000000000000000 0.0000000000000000 175
8.1602756434491717  -7.1357977818525331 50.9223190988573577 0.0000000000000000 0.0000000000000000 176
8.2066170985846423  -7.1359226033651222 50.9240331622827753 0.0000000000000000 0.0000000000000000 177
8.2529588782611132  -7.1360443268086069 50.9257051915803984 0.0000000000000000 0.0000000000000000 178
8.2993009734579459  -7.1361630509512040 50.9273365112010197 0.0000000000000000 0.0000000000000000 179
8.3456433754663539  -7.1362788707567093 50.9289283950898692 0.0000000000000000 0.0000000000000000 180
8.3919860758773215  -7.1363918775515272 50.9304820688836628 0.0000000000000000 0.0000000000000000 181
8.4383290665700379  -7.1365021591835811 50.9319987120023114 0.0000000000000000 0.0000000000000000 182
8.4846723397008184  -7.1366098001735745 50.9334794596406084 0.0000000000000000 0.0000000000000000 183
8.5310158876924849  -7.1367148818590032 50.9349254046654210 0.0000000000000000 0.0000000000000000 184
8.5773597032241771  -7.1368174825312813 50.9363375994229628 0.0000000000000000 0.0000000000000000 185
8.6237037792215965  -7.1369176775663670 50.9377170574610290 0.0000000000000000 0.0000000000000000 186
8.6700481088476522  -7.1370155395491590 50.9390647551701932 0.0000000000000000 0.0000000000000000 187
8.7163926854934761  -7.1371111383920907 50.9403816333485651 0.0000000000000000 0.0000000000000000 188
8.7627375027698218  -7.1372045414481073 50.9416685986935391 0.0000000000000000 0.0000000000000000 189
8.8090825544988043  -7.1372958136183797 50.9429265252244647 0.0000000000000000 0.0000000000000000 190
8.8554278347059867  -7.1373850174550029 50.9441562556396121 0.0000000000000000 0.0000000000000000 191
8.9017733376127630  -7.1374722132589561 50.9453586026110230 0.0000000000000000 0.0000000000000000 192
8.9481190576290839  -7.1375574591734949 50.9465343500196184 0.0000000000000000 0.0000000000000000 193
8.9944649893464437  -7.1376408112732967 50.9476842541345221 0.0000000000000000 0.0000000000000000 194
9.0408111275311658  -7.1377223236494967 50.9488090447384110 0.0000000000000000 0.0000000000000000 195
9.0871574671179545  -7.1378020484908724 50.9499094262023533 0.0000000000000000 0.0000000000000000 196
