 # inv_tmp, energy, phys_var, phys_doublon, phys_num, step_i
0.0548869468657133  -0.4385361950120709 3.4176953831114831 0.0000000000000000 0.0000000000000000 1
0.1092414282946057  -0.6161451973391899 3.6602546530408513 0.0000000000000000 0.0000000000000000 2
0.1630622696307212  -0.7957591513223513 3.9582762471323405 0.0000000000000000 0.0000000000000000 3
0.2163521338282195  -0.9767557104469557 4.3122555781391743 0.0000000000000000 0.0000000000000000 4
0.2691174087181208  -1.1585028543218812 4.7219787371329538 0.0000000000000000 0.0000000000000000 5
0.3213679987608998  -1.3403700625714459 5.1865257386368739 0.0000000000000000 0.0000000000000000 6
0.3731170331032924  -1.5217391807580327 5.7042973245578033 0.0000000000000000 0.0000000000000000 7
0.4243805053171171  -1.7020145825125690 6.2730635115381368 0.0000000000000000 0.0000000000000000 8
0.4751768625424454  -1.8806322843468415 6.8900308006420650 0.0000000000000000 0.0000000000000000 9
0.5255265628334197  -2.0570677382478149 7.5519239959526727 0.0000000000000000 0.0000000000000000 10
0.5754516193736681  -2.2308421061447286 8.2550779709957354 0.0000000000000000 0.0000000000000000 11
0.6249751490396730  -2.4015269037145273 8.9955345059958560 0.0000000000000000 0.0000000000000000 12
0.6741209407536143  -2.5687469831956884 9.7691394784267427 0.0000000000000000 0.0000000000000000 13
0.7229130564218181  -2.7321819010861281 10.5716361709188877 0.0000000000000000 0.0000000000000000 14
0.7713754742471746  -2.8915657829004240 11.3987511849853220 0.0000000000000000 0.0000000000000000 15
0.8195317810674692  -3.0466858506925352 12.2462703233840458 0.0000000000000000 0.0000000000000000 16
0.8674049173136941  -3.1973798180625472 13.1101027343857659 0.0000000000000000 0.0000000000000000 17
0.9150169753739035  -3.3435323812318565 13.9863325133888488 0.0000000000000000 0.0000000000000000 18
0.9623890497177154  -3.4850710439255606 14.8712577638403154 0.0000000000000000 0.0000000000000000 19
1.0095411351682204  -3.6219615096068156 15.7614177838958298 0.0000000000000000 0.0000000000000000 20
1.0564920682425156  -3.7542028591538701 16.6536095429866755 0.0000000000000000 0.0000000000000000 21
1.1032595055206360  -3.8818227079186505 17.5448949384633046 0.0000000000000000 0.0000000000000000 22
1.1498599325137933  -4.0048725060243022 18.4326004876690135 0.0000000000000000 0.0000000000000000 23
1.1963086964302527  -4.1234231124712855 19.3143111373168175 0.0000000000000000 0.0000000000000000 24
1.2426200565084411  -4.2375607395971180 20.1878597885327622 0.0000000000000000 0.0000000000000000 25
1.2888072461216611  -4.3473833317440054 21.0513139732844863 0.0000000000000000 0.0000000000000000 26
1.3348825415762029  -4.4529974122201548 21.9029609059338028 0.0000000000000000 0.0000000000000000 27
1.3808573333487919  -4.5545154068823122 22.7412918987107346 0.0000000000000000 0.0000000000000000 28
1.4267421963735392  -4.6520534315330995 23.5649868935883902 0.0000000000000000 0.0000000000000000 29
1.4725469568376737  -4.7457295140192350 24.3728996416131238 0.0000000000000000 0.0000000000000000 30
1.5182807537366956  -4.8356622103056779 25.1640438652640306 0.0000000000000000 0.0000000000000000 31
1.5639520941430314  -4.9219695665095458 25.9375805762445992 0.0000000000000000 0.0000000000000000 32
1.6095689017390511  -5.0047683753647378 26.6928065926872691 0.0000000000000000 0.0000000000000000 33
1.6551385586468372  -5.0841736752200219 27.4291442054706280 0.0000000000000000 0.0000000000000000 34
1.7006679409530034  -5.1602984417840521 28.1461318804031393 0.0000000000000000 0.0000000000000000 35
1.7461634485833983  -5.2332534267689006 28.8434158472058542 0.0000000000000000 0.0000000000000000 36
1.7916310303405230  -5.3031471027465553 29.5207424125760625 0.0000000000000000 0.0000000000000000 37
1.8370762049899467  -5.3700856793885192 30.1779508379828023 0.0000000000000000 0.0000000000000000 38
1.8825040792863594  -5.4341731623599454 30.8149666382879559 0.0000000000000000 0.0000000000000000 39
1.9279193637811007  -5.4955114321282066 31.4317951803461852 0.0000000000000000 0.0000000000000000 40
1.9733263871661799  -5.5542003255513803 32.0285154876216467 0.0000000000000000 0.0000000000000000 41
2.0187291097988949  -5.6103377081475063 32.6052741845242693 0.0000000000000000 0.0000000000000000 42
2.0641311369280833  -5.6640195292961799 33.1622795403242492 0.0000000000000000 0.0000000000000000 43
2.1095357320177439  -5.7153398562389466 33.6997955955772142 0.0000000000000000 0.0000000000000000 44
2.1549458304438591  -5.7643908856226300 34.2181363730391581 0.0000000000000000 0.0000000000000000 45
2.2003640537313109  -5.8112629335082859 34.7176601896577992 0.0000000000000000 0.0000000000000000 46
2.2457927244033673  -5.8560444063121064 35.1987640963952657 0.0000000000000000 0.0000000000000000 47
2.2912338814382345  -5.8988217561358933 35.6618784786771528 0.0000000000000000 0.0000000000000000 48
2.3366892962661363  -5.9396794244733577 36.1074618526834996 0.0000000000000000 0.0000000000000000 49
2.3821604891957193  -5.9786997784362788 36.5359958921275805 0.0000000000000000 0.0000000000000000 50
2.4276487461289649  -6.0159630435190738 36.9479807172740209 0.0000000000000000 0.0000000000000000 51
2.4731551354073558  -6.0515472365909844 37.3439304733865924 0.0000000000000000 0.0000000000000000 52
2.5186805246267281  -6.0855281023421384 37.7243692201685477 0.0000000000000000 0.0000000000000000 53
2.5642255972617960  -6.1179790558707543 38.0898271475889914 0.0000000000000000 0.0000000000000000 54
2.6097908689517006  -6.1489711335317603 38.4408371272122480 0.0000000000000000 0.0000000000000000 55
2.6553767033130891  -6.1785729536071603 38.7779316021015532 0.0000000000000000 0.0000000000000000 56
2.7009833271655084  -6.2068506878326239 39.1016398128023468 0.0000000000000000 0.0000000000000000 57
2.7466108450737834  -6.2338680443402446 39.4124853519936096 0.0000000000000000 0.0000000000000000 58
2.7922592531323622  -6.2596862621647160 39.7109840362210136 0.0000000000000000 0.0000000000000000 59
2.8379284519364858  -6.2843641171139950 39.9976420797347814 0.0000000000000000 0.0000000000000000 60
2.8836182587036419  -6.3079579385262541 40.2729545528396642 0.0000000000000000 0.0000000000000000 61
2.9293284185258321  -6.3305216362193644 40.5374041052845229 0.0000000000000000 0.0000000000000000 62
2.9750586147482112  -6.3521067367823258 40.7914599340101987 0.0000000000000000 0.0000000000000000 63
3.0208084784826661  -6.3727624282535249 41.0355769739616605 0.0000000000000000 0.0000000000000000 64
3.0665775972758000  -6.3925356121709562 41.2701952905641747 0.0000000000000000 0.0000000000000000 65
3.1123655229596086  -6.4114709619577930 41.4957396527833282 0.0000000000000000 0.0000000000000000 66
3.1581717787200718  -6.4296109866154412 41.7126192663469340 0.0000000000000000 0.0000000000000000 67
3.2039958654240781  -6.4469960987290929 41.9212276476290810 0.0000000000000000 0.0000000000000000 68
3.2498372672486648  -6.4636646858418745 42.1219426198107101 0.0000000000000000 0.0000000000000000 69
3.2956954566588643  -6.4796531843176695 42.3151264141775698 0.0000000000000000 0.0000000000000000 70
3.3415698987814944  -6.4949961548852801 42.5011258607413893 0.0000000000000000 0.0000000000000000 71
3.3874600552223737  -6.5097263591339845 42.6802726537304693 0.0000000000000000 0.0000000000000000 72
3.4333653873737662  -6.5238748363097017 42.8528836788558181 0.0000000000000000 0.0000000000000000 73
3.4792853592575690  -6.5374709798397035 43.0192613905906143 0.0000000000000000 0.0000000000000000 74
3.5252194399479744  -6.5505426130901281 43.1796942289831236 0.0000000000000000 0.0000000000000000 75
3.5711671056152112  -6.5631160639330197 43.3344570667381817 0.0000000000000000 0.0000000000000000 76
3.6171278412295966  -6.5752162377677097 43.4838116784439137 0.0000000000000000 0.0000000000000000 77
3.6631011419625845  -6.5868666887040028 43.6280072248766331 0.0000000000000000 0.0000000000000000 78
3.7090865143189116  -6.5980896886717861 43.7672807462885487 0.0000000000000000 0.0000000000000000 79
3.7550834770312913  -6.6089062942732326 43.9018576594669128 0.0000000000000000 0.0000000000000000 80
3.8010915617465395  -6.6193364112396313 44.0319522541527135 0.0000000000000000 0.0000000000000000 81
3.8471103135294697  -6.6293988563953681 44.1577681851228334 0.0000000000000000 0.0000000000000000 82
3.8931392912084939  -6.6391114170669425 44.2794989568785624 0.0000000000000000 0.0000000000000000 83
3.9391780675845478  -6.6484909079054120 44.3973283984471863 0.0000000000000000 0.0000000000000000 84
3.9852262295227989  -6.6575532251167111 44.5114311262996907 0.0000000000000000 0.0000000000000000 85
4.0312833779445620  -6.6663133981164009 44.6219729938210037 0.0000000000000000 0.0000000000000000 86
4.0773491277349594  -6.6747856386436357 44.7291115261446421 0.0000000000000000 0.0000000000000000 87
4.1234231075801464  -6.6829833873843167 44.8329963394875790 0.0000000000000000 0.0000000000000000 88
4.1695049597462948  -6.6909193581654574 44.9337695443983804 0.0000000000000000 0.0000000000000000 89
4.2155943398111031  -6.6986055797924813 45.0315661325666170 0.0000000000000000 0.0000000000000000 90
4.2616909163572645  -6.7060534356083430 45.1265143470399508 0.0000000000000000 0.0000000000000000 91
4.3077943706361168  -6.7132737008589736 45.2187360358607009 0.0000000000000000 0.0000000000000000 92
4.3539043962086659  -6.7202765779530766 45.3083469892703619 0.0000000000000000 0.0000000000000000 93
4.4000206985701240  -6.7270717297067275 45.3954572607416935 0.0000000000000000 0.0000000000000000 94
4.4461429947633357  -6.7336683106642932 45.4801714721883741 0.0000000000000000 0.0000000000000000 95
4.4922710129856140  -6.7400749965872242 45.5625891037715860 0.0000000000000000 0.0000000000000000 96
4.5384044921928668  -6.7463000122016599 45.6428047687790581 0.0000000000000000 0.0000000000000000 97
4.5845431817042748  -6.7523511572942034 45.7209084740909191 0.0000000000000000 0.0000000000000000 98
4.6306868408102462  -6.7582358312434039 45.7969858667766090 0.0000000000000000 0.0000000000000000 99
4.6768352383859035  -6.7639610560720058 45.8711184673856422 0.0000000000000000 0.0000000000000000 100
4.7229881525119470  -6.7695334981022981 45.9433838905044496 0.0000000000000000 0.0000000000000000 101
4.7691453701043853  -6.7749594882940043 46.0138560531566299 0.0000000000000000 0.0000000000000000 102
4.8153066865542957  -6.7802450413408808 46.0826053716201045 0.0000000000000000 0.0000000000000000 103
4.8614719053785240  -6.7853958735990494 46.1496989472284014 0.0000000000000000 0.0000000000000000 104
4.9076408378819849  -6.7904174199167198 46.2152007417127635 0.0000000000000000 0.0000000000000000 105
4.9538133028320432  -6.7953148494316125 46.2791717426274403 0.0000000000000000 0.0000000000000000 106
4.9999891261452483  -6.8000930803990993 46.3416701193852134 0.0000000000000000 0.0000000000000000 107
5.0461681405866079  -6.8047567941107907 46.4027513704119698 0.0000000000000000 0.0000000000000000 108
5.0923501854813926  -6.8093104479600699 46.4624684619105608 0.0000000000000000 0.0000000000000000 109
5.1385351064394387  -6.8137582877079996 46.5208719587041983 0.0000000000000000 0.0000000000000000 110
5.1847227550917454  -6.8181043589999302 46.5780101476091062 0.0000000000000000 0.0000000000000000 111
5.2309129888391910  -6.8223525181803009 46.6339291537665019 0.0000000000000000 0.0000000000000000 112
5.2771056706130377  -6.8265064424502437 46.6886730503421177 0.0000000000000000 0.0000000000000000 113
5.3233006686469286  -6.8305696394099806 46.7422839619824515 0.0000000000000000 0.0000000000000000 114
5.3694978562600015  -6.8345454560254044 46.7948021623961310 0.0000000000000000 0.0000000000000000 115
5.4156971116507364  -6.8384370870558229 46.8462661664095776 0.0000000000000000 0.0000000000000000 116
5.4618983177011220  -6.8422475829775422 46.8967128168274030 0.0000000000000000 0.0000000000000000 117
5.5081013617907351  -6.8459798574357018 46.9461773664088824 0.0000000000000000 0.0000000000000000 118
5.5543061356202905  -6.8496366942548379 46.9946935552554237 0.0000000000000000 0.0000000000000000 119
5.6005125350442464  -6.8532207540365544 47.0422936838857169 0.0000000000000000 0.0000000000000000 120
5.6467204599120331  -6.8567345803709188 47.0890086822600296 0.0000000000000000 0.0000000000000000 121
5.6929298139174707  -6.8601806056864936 47.1348681749990703 0.0000000000000000 0.0000000000000000 122
5.7391405044559862  -6.8635611567621613 47.1799005430285092 0.0000000000000000 0.0000000000000000 123
5.7853524424891898  -6.8668784599225221 47.2241329818658926 0.0000000000000000 0.0000000000000000 124
5.8315655424164392  -6.8701346459371067 47.2675915567537643 0.0000000000000000 0.0000000000000000 125
5.8777797219529955  -6.8733317546423116 47.3103012548300654 0.0000000000000000 0.0000000000000000 126
5.9239949020143996  -6.8764717393037689 47.3522860345152381 0.0000000000000000 0.0000000000000000 127
5.9702110066067160  -6.8795564707356158 47.3935688722839359 0.0000000000000000 0.0000000000000000 128
6.0164279627222950  -6.8825877411920224 47.4341718069790019 0.0000000000000000 0.0000000000000000 129
6.0626457002407284  -6.8855672680454045 47.4741159818154657 0.0000000000000000 0.0000000000000000 130
6.1088641518346778  -6.8884966972646495 47.5134216842127870 0.0000000000000000 0.0000000000000000 131
6.1550832528802877  -6.8913776067058858 47.5521083835847023 0.0000000000000000 0.0000000000000000 132
6.2013029413718828  -6.8942115092274729 47.5901947672084660 0.0000000000000000 0.0000000000000000 133
6.2475231578406927  -6.8969998556400371 47.6276987742866282 0.0000000000000000 0.0000000000000000 134
6.2937438452773415  -6.8997440375017565 47.6646376283077586 0.0000000000000000 0.0000000000000000 135
6.3399649490578520  -6.9024453897683502 47.7010278678061184 0.0000000000000000 0.0000000000000000 136
6.3861864168729605  -6.9051051933065857 47.7368853756127010 0.0000000000000000 0.0000000000000000 137
6.4324081986604815  -6.9077246772796066 47.7722254066858980 0.0000000000000000 0.0000000000000000 138
6.4786302465405790  -6.9103050214117081 47.8070626146024011 0.0000000000000000 0.0000000000000000 139
6.5248525147536949  -6.9128473581398158 47.8414110767857323 0.0000000000000000 0.0000000000000000 140
6.5710749596009839  -6.9153527746583396 47.8752843185435424 0.0000000000000000 0.0000000000000000 141
6.6172975393870956  -6.9178223148636802 47.9086953359808234 0.0000000000000000 0.0000000000000000 142
6.6635202143651187  -6.9202569812042292 47.9416566178518764 0.0000000000000000 0.0000000000000000 143
6.7097429466835603  -6.9226577364413693 47.9741801664099512 0.0000000000000000 0.0000000000000000 144
6.7559657003352056  -6.9250255053265413 48.0062775173094067 0.0000000000000000 0.0000000000000000 145
6.8021884411077593  -6.9273611761991676 48.0379597586124163 0.0000000000000000 0.0000000000000000 146
6.8484111365361064  -6.9296656025099264 48.0692375489483226 0.0000000000000000 0.0000000000000000 147
6.8946337558561090  -6.9319396042735200 48.1001211348712587 0.0000000000000000 0.0000000000000000 148
6.9408562699598439  -6.9341839694548337 48.1306203674581354 0.0000000000000000 0.0000000000000000 149
6.9870786513521397  -6.9363994552922339 48.1607447181878570 0.0000000000000000 0.0000000000000000 150
7.0333008741083853  -6.9385867895612661 48.1905032941378622 0.0000000000000000 0.0000000000000000 151
7.0795229138334710  -6.9407466717821391 48.2199048525345049 0.0000000000000000 0.0000000000000000 152
7.1257447476218250  -6.9428797743738597 48.2489578146892697 0.0000000000000000 0.0000000000000000 153
7.1719663540184468  -6.9449867437579167 48.2776702793524493 0.0000000000000000 0.0000000000000000 154
7.2181877129809013  -6.9470682014140976 48.3060500355128966 0.0000000000000000 0.0000000000000000 155
7.2644088058421774  -6.9491247448909528 48.3341045746716702 0.0000000000000000 0.0000000000000000 156
7.3106296152743937  -6.9511569487732130 48.3618411026149957 0.0000000000000000 0.0000000000000000 157
7.3568501252532679  -6.9531653656083350 48.3892665507109285 0.0000000000000000 0.0000000000000000 158
7.4030703210233302  -6.9551505267942275 48.4163875867523146 0.0000000000000000 0.0000000000000000 159
7.4492901890638192  -6.9571129434300714 48.4432106253675983 0.0000000000000000 0.0000000000000000 160
7.4955097170552261  -6.9590531071320765 48.4697418380197362 0.0000000000000000 0.0000000000000000 161
7.5417288938464688  -6.9609714908158073 48.4959871626121100 0.0000000000000000 0.0000000000000000 162
7.5879477094226306  -6.9628685494467453 48.5219523127193142 0.0000000000000000 0.0000000000000000 163
7.6341661548732658  -6.9647447207605486 48.5476427864599884 0.0000000000000000 0.0000000000000000 164
7.6803842223612326  -6.9666004259544554 48.5730638750274863 0.0000000000000000 0.0000000000000000 165
7.7266019050920294  -6.9684360703511166 48.5982206708932907 0.0000000000000000 0.0000000000000000 166
7.7728191972836136  -6.9702520440362017 48.6231180756978461 0.0000000000000000 0.0000000000000000 167
7.8190360941366883  -6.9720487224708627 48.6477608078418058 0.0000000000000000 0.0000000000000000 168
7.8652525918054348  -6.9738264670802614 48.6721534097906741 0.0000000000000000 0.0000000000000000 169
7.9114686873686821  -6.9755856258191713 48.6963002551048163 0.0000000000000000 0.0000000000000000 170
7.9576843788014919  -6.9773265337156607 48.7202055552062276 0.0000000000000000 0.0000000000000000 171
8.0038996649471557  -6.9790495133938206 48.7438733658928456 0.0000000000000000 0.0000000000000000 172
8.0501145454895831  -6.9807548755764106 48.7673075936107381 0.0000000000000000 0.0000000000000000 173
8.0963290209260972  -6.9824429195682667 48.7905120014935534 0.0000000000000000 0.0000000000000000 174
8.1425430925405866  -6.9841139337213010 48.8134902151790158 0.0000000000000000 0.0000000000000000 175
8.1887567623770625  -6.9857681958818025 48.8362457284105318 0.0000000000000000 0.0000000000000000 176
8.2349700332135587  -6.9874059738208310 48.8587819084328032 0.0000000000000000 0.0000000000000000 177
8.2811829085364117  -6.9890275256482868 48.8811020011888786 0.0000000000000000 0.0000000000000000 178
8.3273953925149211  -6.9906331002114186 48.9032091363266090 0.0000000000000000 0.0000000000000000 179
8.3736074899763207  -6.9922229374782896 48.9251063320212296 0.0000000000000000 0.0000000000000000 180
8.4198192063811668  -6.9937972689068477 48.9467964996212572 0.0000000000000000 0.0000000000000000 181
8.4660305477990363  -6.9953563178001108 48.9682824481238441 0.0000000000000000 0.0000000000000000 182
8.5122415208846061  -6.9969002996480594 48.9895668884861948 0.0000000000000000 0.0000000000000000 183
8.5584521328540841  -6.9984294224566597 49.0106524377786172 0.0000000000000000 0.0000000000000000 184
8.6046623914619804  -6.9999438870645783 49.0315416231849852 0.0000000000000000 0.0000000000000000 185
8.6508723049782486  -7.0014438874479907 49.0522368858561535 0.0000000000000000 0.0000000000000000 186
8.6970818821657883  -7.0029296110139416 49.0727405846211511 0.0000000000000000 0.0000000000000000 187
8.7432911322582783  -7.0044012388826973 49.0930549995616872 0.0000000000000000 0.0000000000000000 188
8.7895000649383981  -7.0058589461594405 49.1131823354538568 0.0000000000000000 0.0000000000000000 189
8.8357086903163875  -7.0073029021957334 49.1331247250825456 0.0000000000000000 0.0000000000000000 190
8.8819170189089682  -7.0087332708411054 49.1528842324321644 0.0000000000000000 0.0000000000000000 191
8.9281250616186441  -7.0101502106850955 49.1724628557581767 0.0000000000000000 0.0000000000000000 192
8.9743328297133402  -7.0115538752901010 49.1918625305435313 0.0000000000000000 0.0000000000000000 193
9.0205403348064248  -7.0129444134153687 49.2110851323436265 0.0000000000000000 0.0000000000000000 194
9.0667475888370852  -7.0143219692324053 49.2301324795237392 0.0000000000000000 0.0000000000000000 195
9.1129546040510849  -7.0156866825321185 49.2490063358923322 0.0000000000000000 0.0000000000000000 196
