 # inv_tmp, energy, phys_var, phys_doublon, phys_num, step_i
0.120203  -0.638553 3.608638 0.000000 16.000000 1
0.234972  -1.023331 4.312209 0.000000 16.000000 2
0.344714  -1.405720 5.262619 0.000000 16.000000 3
0.449917  -1.781054 6.438535 0.000000 16.000000 4
0.551111  -2.145172 7.808086 0.000000 16.000000 5
0.648843  -2.494473 9.332031 0.000000 16.000000 6
0.743653  -2.825986 10.967301 0.000000 16.000000 7
0.836057  -3.137451 12.670518 0.000000 16.000000 8
0.926528  -3.427371 14.401075 0.000000 16.000000 9
1.015486  -3.695010 16.123454 0.000000 16.000000 10
1.103291  -3.940340 17.808613 0.000000 16.000000 11
1.190244  -4.163933 19.434463 0.000000 16.000000 12
1.276586  -4.366823 20.985596 0.000000 16.000000 13
1.362506  -4.550367 22.452517 0.000000 16.000000 14
1.448149  -4.716107 23.830609 0.000000 16.000000 15
1.533620  -4.865668 25.119044 0.000000 16.000000 16
1.618996  -5.000665 26.319761 0.000000 16.000000 17
1.704331  -5.122654 27.436593 0.000000 16.000000 18
1.789660  -5.233087 28.474558 0.000000 16.000000 19
1.875003  -5.333297 29.439326 0.000000 16.000000 20
1.960373  -5.424490 30.336817 0.000000 16.000000 21
2.045775  -5.507740 31.172932 0.000000 16.000000 22
2.131208  -5.584004 31.953362 0.000000 16.000000 23
2.216668  -5.654123 32.683477 0.000000 16.000000 24
2.302149  -5.718836 33.368258 0.000000 16.000000 25
2.387644  -5.778789 34.012268 0.000000 16.000000 26
2.473145  -5.834544 34.619640 0.000000 16.000000 27
2.558644  -5.886593 35.194093 0.000000 16.000000 28
2.644133  -5.935360 35.738945 0.000000 16.000000 29
2.729603  -5.981215 36.257137 0.000000 16.000000 30
2.815050  -6.024477 36.751264 0.000000 16.000000 31
2.900466  -6.065423 37.223603 0.000000 16.000000 32
2.985846  -6.104290 37.676139 0.000000 16.000000 33
3.071186  -6.141284 38.110597 0.000000 16.000000 34
3.156483  -6.176580 38.528470 0.000000 16.000000 35
3.241735  -6.210330 38.931041 0.000000 16.000000 36
3.326940  -6.242664 39.319409 0.000000 16.000000 37
3.412097  -6.273691 39.694514 0.000000 16.000000 38
3.497208  -6.303508 40.057156 0.000000 16.000000 39
3.582272  -6.332194 40.408013 0.000000 16.000000 40
3.667293  -6.359819 40.747662 0.000000 16.000000 41
3.752271  -6.386442 41.076593 0.000000 16.000000 42
3.837210  -6.412114 41.395222 0.000000 16.000000 43
3.922114  -6.436880 41.703909 0.000000 16.000000 44
4.006985  -6.460778 42.002963 0.000000 16.000000 45
4.091827  -6.483841 42.292655 0.000000 16.000000 46
4.176645  -6.506100 42.573229 0.000000 16.000000 47
4.261443  -6.527582 42.844903 0.000000 16.000000 48
4.346223  -6.548311 43.107884 0.000000 16.000000 49
4.430992  -6.568311 43.362365 0.000000 16.000000 50
4.515752  -6.587602 43.608532 0.000000 16.000000 51
4.600506  -6.606207 43.846571 0.000000 16.000000 52
4.685260  -6.624144 44.076665 0.000000 16.000000 53
4.770016  -6.641433 44.298998 0.000000 16.000000 54
4.854777  -6.658094 44.513758 0.000000 16.000000 55
4.939547  -6.674145 44.721134 0.000000 16.000000 56
5.024327  -6.689605 44.921320 0.000000 16.000000 57
5.109121  -6.704494 45.114513 0.000000 16.000000 58
5.193930  -6.718829 45.300914 0.000000 16.000000 59
5.278756  -6.732629 45.480724 0.000000 16.000000 60
5.363601  -6.745913 45.654149 0.000000 16.000000 61
5.448466  -6.758699 45.821396 0.000000 16.000000 62
5.533352  -6.771006 45.982669 0.000000 16.000000 63
5.618261  -6.782851 46.138177 0.000000 16.000000 64
5.703192  -6.794252 46.288124 0.000000 16.000000 65
5.788147  -6.805226 46.432714 0.000000 16.000000 66
5.873125  -6.815791 46.572147 0.000000 16.000000 67
5.958128  -6.825963 46.706621 0.000000 16.000000 68
6.043154  -6.835759 46.836329 0.000000 16.000000 69
6.128204  -6.845193 46.961462 0.000000 16.000000 70
6.213277  -6.854283 47.082202 0.000000 16.000000 71
6.298375  -6.863041 47.198729 0.000000 16.000000 72
6.383495  -6.871484 47.311217 0.000000 16.000000 73
6.468638  -6.879623 47.419834 0.000000 16.000000 74
6.553803  -6.887474 47.524740 0.000000 16.000000 75
6.638990  -6.895047 47.626091 0.000000 16.000000 76
6.724199  -6.902357 47.724037 0.000000 16.000000 77
6.809428  -6.909413 47.818721 0.000000 16.000000 78
6.894678  -6.916227 47.910279 0.000000 16.000000 79
6.979947  -6.922811 47.998843 0.000000 16.000000 80
7.065235  -6.929173 48.084537 0.000000 16.000000 81
7.150542  -6.935323 48.167481 0.000000 16.000000 82
7.235868  -6.941271 48.247787 0.000000 16.000000 83
7.321211  -6.947025 48.325564 0.000000 16.000000 84
7.406571  -6.952593 48.400913 0.000000 16.000000 85
7.491947  -6.957984 48.473932 0.000000 16.000000 86
7.577340  -6.963203 48.544714 0.000000 16.000000 87
7.662749  -6.968260 48.613345 0.000000 16.000000 88
7.748173  -6.973159 48.679909 0.000000 16.000000 89
7.833612  -6.977907 48.744485 0.000000 16.000000 90
7.919065  -6.982511 48.807147 0.000000 16.000000 91
8.004533  -6.986975 48.867967 0.000000 16.000000 92
8.090015  -6.991305 48.927011 0.000000 16.000000 93
8.175510  -6.995507 48.984343 0.000000 16.000000 94
8.261019  -6.999584 49.040024 0.000000 16.000000 95
8.346541  -7.003542 49.094112 0.000000 16.000000 96
8.432076  -7.007384 49.146660 0.000000 16.000000 97
8.517623  -7.011115 49.197721 0.000000 16.000000 98
8.603183  -7.014738 49.247344 0.000000 16.000000 99
8.688755  -7.018258 49.295577 0.000000 16.000000 100
8.774339  -7.021677 49.342463 0.000000 16.000000 101
8.859935  -7.024999 49.388046 0.000000 16.000000 102
8.945543  -7.028228 49.432366 0.000000 16.000000 103
9.031162  -7.031365 49.475463 0.000000 16.000000 104
9.116793  -7.034415 49.517373 0.000000 16.000000 105
9.202436  -7.037379 49.558132 0.000000 16.000000 106
9.288089  -7.040261 49.597774 0.000000 16.000000 107
9.373754  -7.043062 49.636333 0.000000 16.000000 108
9.459430  -7.045786 49.673839 0.000000 16.000000 109
9.545117  -7.048435 49.710322 0.000000 16.000000 110
9.630814  -7.051010 49.745813 0.000000 16.000000 111
9.716523  -7.053515 49.780337 0.000000 16.000000 112
9.802242  -7.055950 49.813924 0.000000 16.000000 113
9.887972  -7.058318 49.846598 0.000000 16.000000 114
9.973712  -7.060622 49.878385 0.000000 16.000000 115
10.059463  -7.062862 49.909309 0.000000 16.000000 116
10.145224  -7.065040 49.939393 0.000000 16.000000 117
10.230996  -7.067159 49.968661 0.000000 16.000000 118
10.316777  -7.069219 49.997134 0.000000 16.000000 119
10.402569  -7.071223 50.024833 0.000000 16.000000 120
10.488372  -7.073172 50.051780 0.000000 16.000000 121
10.574184  -7.075067 50.077994 0.000000 16.000000 122
10.660006  -7.076911 50.103495 0.000000 16.000000 123
10.745838  -7.078703 50.128302 0.000000 16.000000 124
10.831679  -7.080447 50.152433 0.000000 16.000000 125
10.917531  -7.082143 50.175906 0.000000 16.000000 126
11.003392  -7.083791 50.198739 0.000000 16.000000 127
11.089262  -7.085395 50.220948 0.000000 16.000000 128
11.175142  -7.086954 50.242551 0.000000 16.000000 129
11.261032  -7.088471 50.263563 0.000000 16.000000 130
11.346930  -7.089946 50.284000 0.000000 16.000000 131
11.432838  -7.091380 50.303876 0.000000 16.000000 132
11.518755  -7.092774 50.323208 0.000000 16.000000 133
11.604681  -7.094130 50.342010 0.000000 16.000000 134
11.690615  -7.095448 50.360295 0.000000 16.000000 135
11.776559  -7.096730 50.378077 0.000000 16.000000 136
11.862511  -7.097977 50.395371 0.000000 16.000000 137
11.948472  -7.099189 50.412188 0.000000 16.000000 138
12.034441  -7.100367 50.428542 0.000000 16.000000 139
12.120418  -7.101513 50.444445 0.000000 16.000000 140
12.206404  -7.102627 50.459910 0.000000 16.000000 141
12.292398  -7.103710 50.474948 0.000000 16.000000 142
12.378400  -7.104763 50.489570 0.000000 16.000000 143
12.464410  -7.105787 50.503788 0.000000 16.000000 144
12.550428  -7.106782 50.517613 0.000000 16.000000 145
12.636453  -7.107750 50.531056 0.000000 16.000000 146
12.722486  -7.108691 50.544127 0.000000 16.000000 147
12.808527  -7.109605 50.556836 0.000000 16.000000 148
12.894575  -7.110495 50.569192 0.000000 16.000000 149
12.980630  -7.111359 50.581207 0.000000 16.000000 150
13.066692  -7.112199 50.592888 0.000000 16.000000 151
13.152762  -7.113016 50.604246 0.000000 16.000000 152
13.238838  -7.113811 50.615289 0.000000 16.000000 153
13.324921  -7.114583 50.626026 0.000000 16.000000 154
13.411011  -7.115334 50.636465 0.000000 16.000000 155
13.497108  -7.116063 50.646614 0.000000 16.000000 156
13.583211  -7.116773 50.656482 0.000000 16.000000 157
13.669320  -7.117462 50.666077 0.000000 16.000000 158
13.755436  -7.118133 50.675405 0.000000 16.000000 159
13.841558  -7.118785 50.684475 0.000000 16.000000 160
13.927686  -7.119419 50.693293 0.000000 16.000000 161
14.013820  -7.120035 50.701867 0.000000 16.000000 162
14.099960  -7.120634 50.710204 0.000000 16.000000 163
14.186105  -7.121216 50.718309 0.000000 16.000000 164
14.272256  -7.121782 50.726190 0.000000 16.000000 165
14.358413  -7.122333 50.733853 0.000000 16.000000 166
14.444575  -7.122868 50.741304 0.000000 16.000000 167
14.530743  -7.123388 50.748549 0.000000 16.000000 168
14.616915  -7.123894 50.755593 0.000000 16.000000 169
14.703093  -7.124386 50.762443 0.000000 16.000000 170
14.789276  -7.124864 50.769104 0.000000 16.000000 171
14.875464  -7.125329 50.775580 0.000000 16.000000 172
14.961657  -7.125781 50.781879 0.000000 16.000000 173
15.047854  -7.126221 50.788003 0.000000 16.000000 174
15.134056  -7.126648 50.793959 0.000000 16.000000 175
15.220263  -7.127064 50.799751 0.000000 16.000000 176
15.306474  -7.127468 50.805383 0.000000 16.000000 177
15.392690  -7.127861 50.810860 0.000000 16.000000 178
15.478910  -7.128244 50.816188 0.000000 16.000000 179
15.565134  -7.128615 50.821368 0.000000 16.000000 180
15.651362  -7.128977 50.826407 0.000000 16.000000 181
15.737595  -7.129329 50.831308 0.000000 16.000000 182
15.823831  -7.129671 50.836074 0.000000 16.000000 183
15.910071  -7.130003 50.840710 0.000000 16.000000 184
15.996315  -7.130327 50.845220 0.000000 16.000000 185
16.082563  -7.130641 50.849606 0.000000 16.000000 186
16.168815  -7.130947 50.853872 0.000000 16.000000 187
16.255070  -7.131245 50.858022 0.000000 16.000000 188
16.341329  -7.131534 50.862060 0.000000 16.000000 189
16.427591  -7.131816 50.865987 0.000000 16.000000 190
16.513856  -7.132090 50.869807 0.000000 16.000000 191
16.600125  -7.132356 50.873524 0.000000 16.000000 192
16.686397  -7.132615 50.877140 0.000000 16.000000 193
16.772672  -7.132868 50.880658 0.000000 16.000000 194
16.858950  -7.133113 50.884081 0.000000 16.000000 195
16.945231  -7.133352 50.887412 0.000000 16.000000 196
17.031516  -7.133584 50.890652 0.000000 16.000000 197
17.117803  -7.133810 50.893805 0.000000 16.000000 198
17.204093  -7.134030 50.896873 0.000000 16.000000 199
17.290386  -7.134244 50.899858 0.000000 16.000000 200
17.376681  -7.134452 50.902764 0.000000 16.000000 201
17.462980  -7.134655 50.905591 0.000000 16.000000 202
17.549280  -7.134852 50.908342 0.000000 16.000000 203
17.635584  -7.135043 50.911019 0.000000 16.000000 204
17.721890  -7.135230 50.913625 0.000000 16.000000 205
17.808198  -7.135412 50.916161 0.000000 16.000000 206
17.894509  -7.135589 50.918630 0.000000 16.000000 207
17.980822  -7.135761 50.921032 0.000000 16.000000 208
18.067138  -7.135928 50.923371 0.000000 16.000000 209
18.153455  -7.136091 50.925647 0.000000 16.000000 210
18.239775  -7.136250 50.927863 0.000000 16.000000 211
18.326097  -7.136404 50.930020 0.000000 16.000000 212
18.412421  -7.136555 50.932120 0.000000 16.000000 213
18.498748  -7.136701 50.934164 0.000000 16.000000 214
18.585076  -7.136844 50.936154 0.000000 16.000000 215
18.671406  -7.136982 50.938092 0.000000 16.000000 216
18.757738  -7.137118 50.939978 0.000000 16.000000 217
18.844073  -7.137249 50.941815 0.000000 16.000000 218
18.930409  -7.137377 50.943603 0.000000 16.000000 219
19.016746  -7.137502 50.945345 0.000000 16.000000 220
19.103086  -7.137623 50.947040 0.000000 16.000000 221
19.189427  -7.137741 50.948691 0.000000 16.000000 222
19.275770  -7.137856 50.950299 0.000000 16.000000 223
19.362115  -7.137968 50.951865 0.000000 16.000000 224
19.448461  -7.138078 50.953390 0.000000 16.000000 225
19.534809  -7.138184 50.954874 0.000000 16.000000 226
19.621158  -7.138287 50.956321 0.000000 16.000000 227
19.707509  -7.138388 50.957729 0.000000 16.000000 228
19.793862  -7.138486 50.959101 0.000000 16.000000 229
19.880216  -7.138582 50.960437 0.000000 16.000000 230
19.966571  -7.138675 50.961739 0.000000 16.000000 231
20.052928  -7.138766 50.963007 0.000000 16.000000 232
20.139286  -7.138854 50.964242 0.000000 16.000000 233
20.225645  -7.138940 50.965445 0.000000 16.000000 234
20.312006  -7.139024 50.966616 0.000000 16.000000 235
20.398368  -7.139106 50.967758 0.000000 16.000000 236
20.484732  -7.139185 50.968870 0.000000 16.000000 237
20.571096  -7.139263 50.969954 0.000000 16.000000 238
20.657462  -7.139338 50.971010 0.000000 16.000000 239
20.743829  -7.139412 50.972038 0.000000 16.000000 240
20.830197  -7.139484 50.973040 0.000000 16.000000 241
20.916566  -7.139554 50.974017 0.000000 16.000000 242
21.002936  -7.139622 50.974968 0.000000 16.000000 243
21.089308  -7.139688 50.975895 0.000000 16.000000 244
21.175680  -7.139752 50.976799 0.000000 16.000000 245
21.262054  -7.139815 50.977679 0.000000 16.000000 246
21.348428  -7.139877 50.978537 0.000000 16.000000 247
21.434804  -7.139937 50.979373 0.000000 16.000000 248
21.521180  -7.139995 50.980188 0.000000 16.000000 249
21.607558  -7.140052 50.980982 0.000000 16.000000 250
21.693936  -7.140107 50.981756 0.000000 16.000000 251
21.780315  -7.140161 50.982510 0.000000 16.000000 252
21.866695  -7.140213 50.983245 0.000000 16.000000 253
21.953076  -7.140265 50.983962 0.000000 16.000000 254
22.039458  -7.140315 50.984660 0.000000 16.000000 255
22.125841  -7.140363 50.985341 0.000000 16.000000 256
22.212225  -7.140411 50.986004 0.000000 16.000000 257
22.298609  -7.140457 50.986651 0.000000 16.000000 258
22.384994  -7.140502 50.987282 0.000000 16.000000 259
22.471380  -7.140546 50.987896 0.000000 16.000000 260
22.557766  -7.140589 50.988495 0.000000 16.000000 261
22.644154  -7.140631 50.989080 0.000000 16.000000 262
22.730542  -7.140671 50.989649 0.000000 16.000000 263
22.816931  -7.140711 50.990204 0.000000 16.000000 264
22.903320  -7.140750 50.990746 0.000000 16.000000 265
22.989710  -7.140787 50.991273 0.000000 16.000000 266
23.076101  -7.140824 50.991788 0.000000 16.000000 267
23.162493  -7.140860 50.992290 0.000000 16.000000 268
23.248885  -7.140895 50.992779 0.000000 16.000000 269
23.335277  -7.140929 50.993256 0.000000 16.000000 270
23.421671  -7.140962 50.993721 0.000000 16.000000 271
23.508065  -7.140995 50.994174 0.000000 16.000000 272
23.594459  -7.141026 50.994617 0.000000 16.000000 273
23.680854  -7.141057 50.995048 0.000000 16.000000 274
23.767250  -7.141087 50.995468 0.000000 16.000000 275
23.853646  -7.141117 50.995879 0.000000 16.000000 276
23.940043  -7.141145 50.996279 0.000000 16.000000 277
24.026440  -7.141173 50.996669 0.000000 16.000000 278
24.112837  -7.141200 50.997049 0.000000 16.000000 279
24.199236  -7.141227 50.997420 0.000000 16.000000 280
24.285634  -7.141253 50.997782 0.000000 16.000000 281
24.372034  -7.141278 50.998135 0.000000 16.000000 282
24.458433  -7.141302 50.998479 0.000000 16.000000 283
24.544833  -7.141326 50.998815 0.000000 16.000000 284
24.631234  -7.141350 50.999142 0.000000 16.000000 285
24.717635  -7.141373 50.999461 0.000000 16.000000 286
24.804036  -7.141395 50.999773 0.000000 16.000000 287
24.890438  -7.141417 51.000077 0.000000 16.000000 288
24.976841  -7.141438 51.000373 0.000000 16.000000 289
25.063243  -7.141458 51.000662 0.000000 16.000000 290
25.149646  -7.141479 51.000944 0.000000 16.000000 291
25.236050  -7.141498 51.001219 0.000000 16.000000 292
25.322454  -7.141517 51.001488 0.000000 16.000000 293
25.408858  -7.141536 51.001750 0.000000 16.000000 294
25.495262  -7.141554 51.002005 0.000000 16.000000 295
25.581667  -7.141572 51.002254 0.000000 16.000000 296
25.668073  -7.141589 51.002497 0.000000 16.000000 297
25.754478  -7.141606 51.002735 0.000000 16.000000 298
25.840884  -7.141623 51.002966 0.000000 16.000000 299
25.927291  -7.141639 51.003192 0.000000 16.000000 300
26.013697  -7.141655 51.003412 0.000000 16.000000 301
26.100104  -7.141670 51.003627 0.000000 16.000000 302
26.186511  -7.141685 51.003837 0.000000 16.000000 303
26.272919  -7.141700 51.004041 0.000000 16.000000 304
26.359327  -7.141714 51.004241 0.000000 16.000000 305
26.445735  -7.141728 51.004435 0.000000 16.000000 306
26.532143  -7.141741 51.004625 0.000000 16.000000 307
26.618552  -7.141755 51.004811 0.000000 16.000000 308
26.704961  -7.141768 51.004992 0.000000 16.000000 309
26.791370  -7.141780 51.005168 0.000000 16.000000 310
26.877780  -7.141793 51.005341 0.000000 16.000000 311
26.964189  -7.141805 51.005509 0.000000 16.000000 312
27.050599  -7.141816 51.005673 0.000000 16.000000 313
27.137010  -7.141828 51.005833 0.000000 16.000000 314
27.223420  -7.141839 51.005989 0.000000 16.000000 315
27.309831  -7.141850 51.006141 0.000000 16.000000 316
27.396242  -7.141860 51.006290 0.000000 16.000000 317
27.482653  -7.141871 51.006435 0.000000 16.000000 318
27.569064  -7.141881 51.006577 0.000000 16.000000 319
27.655476  -7.141891 51.006715 0.000000 16.000000 320
27.741888  -7.141900 51.006850 0.000000 16.000000 321
27.828300  -7.141910 51.006982 0.000000 16.000000 322
27.914712  -7.141919 51.007110 0.000000 16.000000 323
28.001124  -7.141928 51.007236 0.000000 16.000000 324
28.087537  -7.141937 51.007358 0.000000 16.000000 325
28.173950  -7.141945 51.007478 0.000000 16.000000 326
28.260363  -7.141954 51.007594 0.000000 16.000000 327
28.346776  -7.141962 51.007708 0.000000 16.000000 328
28.433189  -7.141970 51.007819 0.000000 16.000000 329
28.519603  -7.141977 51.007928 0.000000 16.000000 330
28.606016  -7.141985 51.008034 0.000000 16.000000 331
28.692430  -7.141992 51.008137 0.000000 16.000000 332
28.778844  -7.141999 51.008238 0.000000 16.000000 333
28.865259  -7.142006 51.008336 0.000000 16.000000 334
28.951673  -7.142013 51.008432 0.000000 16.000000 335
29.038087  -7.142020 51.008526 0.000000 16.000000 336
29.124502  -7.142027 51.008617 0.000000 16.000000 337
29.210917  -7.142033 51.008707 0.000000 16.000000 338
29.297332  -7.142039 51.008794 0.000000 16.000000 339
29.383747  -7.142045 51.008879 0.000000 16.000000 340
29.470162  -7.142051 51.008962 0.000000 16.000000 341
29.556578  -7.142057 51.009043 0.000000 16.000000 342
29.642993  -7.142063 51.009122 0.000000 16.000000 343
29.729409  -7.142068 51.009200 0.000000 16.000000 344
29.815824  -7.142073 51.009275 0.000000 16.000000 345
29.902240  -7.142079 51.009349 0.000000 16.000000 346
29.988656  -7.142084 51.009420 0.000000 16.000000 347
30.075072  -7.142089 51.009491 0.000000 16.000000 348
30.161489  -7.142094 51.009559 0.000000 16.000000 349
30.247905  -7.142099 51.009626 0.000000 16.000000 350
30.334322  -7.142103 51.009691 0.000000 16.000000 351
30.420738  -7.142108 51.009755 0.000000 16.000000 352
30.507155  -7.142112 51.009817 0.000000 16.000000 353
30.593572  -7.142117 51.009878 0.000000 16.000000 354
30.679989  -7.142121 51.009937 0.000000 16.000000 355
30.766406  -7.142125 51.009995 0.000000 16.000000 356
30.852823  -7.142129 51.010052 0.000000 16.000000 357
30.939240  -7.142133 51.010107 0.000000 16.000000 358
31.025657  -7.142137 51.010161 0.000000 16.000000 359
31.112075  -7.142140 51.010213 0.000000 16.000000 360
31.198492  -7.142144 51.010265 0.000000 16.000000 361
31.284910  -7.142148 51.010315 0.000000 16.000000 362
31.371327  -7.142151 51.010364 0.000000 16.000000 363
31.457745  -7.142155 51.010412 0.000000 16.000000 364
31.544163  -7.142158 51.010458 0.000000 16.000000 365
31.630581  -7.142161 51.010504 0.000000 16.000000 366
31.716999  -7.142164 51.010548 0.000000 16.000000 367
31.803417  -7.142167 51.010592 0.000000 16.000000 368
31.889835  -7.142171 51.010634 0.000000 16.000000 369
31.976253  -7.142173 51.010675 0.000000 16.000000 370
32.062672  -7.142176 51.010716 0.000000 16.000000 371
32.149090  -7.142179 51.010755 0.000000 16.000000 372
32.235508  -7.142182 51.010794 0.000000 16.000000 373
