 # inv_tmp, energy, phys_var, phys_doublon, phys_num, step_i
0.0616133006849456  -0.4605235844583489 3.4640932322187807 0.0000000000000000 12.0000000000000000 1
0.1224679399856664  -0.6616092380435254 3.7535199687818572 0.0000000000000000 12.0000000000000000 2
0.1825641326257938  -0.8651631276245662 4.1153765622294429 0.0000000000000000 12.0000000000000000 3
0.2419084730522408  -1.0703587975290922 4.5503119780094972 0.0000000000000000 12.0000000000000000 4
0.3005136563506883  -1.2763579580236155 5.0578822639987777 0.0000000000000000 12.0000000000000000 5
0.3583980228965217  -1.4823275614572702 5.6365622218567175 0.0000000000000000 12.0000000000000000 6
0.4155849561927915  -1.6874561780464092 6.2837968062836715 0.0000000000000000 12.0000000000000000 7
0.4721021712533649  -1.8909688924375185 6.9960878012170129 0.0000000000000000 12.0000000000000000 8
0.5279809351580346  -2.0921400781493427 7.7691091507469912 0.0000000000000000 12.0000000000000000 9
0.5832552617633130  -2.2903035962941205 8.5978429259368045 0.0000000000000000 12.0000000000000000 10
0.6379611192910093  -2.4848601815255549 9.4767273672101489 0.0000000000000000 12.0000000000000000 11
0.6921356834051434  -2.6752819937352310 10.3998087096950567 0.0000000000000000 12.0000000000000000 12
0.7458166604879503  -2.8611145036496084 11.3608894281506174 0.0000000000000000 12.0000000000000000 13
0.7990416972732126  -3.0419760264727347 12.3536669192487452 0.0000000000000000 12.0000000000000000 14
0.8518478848015353  -3.2175553115207203 13.3718582447374814 0.0000000000000000 12.0000000000000000 15
0.9042713575801854  -3.3876076376359530 14.4093081823807729 0.0000000000000000 12.0000000000000000 16
0.9563469832981394  -3.5519498610689562 15.4600793112617776 0.0000000000000000 12.0000000000000000 17
1.0081081346048173  -3.7104548254757930 16.5185240894913861 0.0000000000000000 12.0000000000000000 18
1.0595865322138958  -3.8630454849241600 17.5793398164276553 0.0000000000000000 12.0000000000000000 19
1.1108121476965778  -4.0096890216275707 18.6376080048642088 0.0000000000000000 12.0000000000000000 20
1.1618131544676862  -4.1503911696053688 19.6888200504291824 0.0000000000000000 12.0000000000000000 21
1.2126159163233337  -4.2851908899633635 20.7288912236850464 0.0000000000000000 12.0000000000000000 22
1.2632450041763694  -4.4141554867987089 21.7541649805568795 0.0000000000000000 12.0000000000000000 23
1.3137232331258162  -4.5373762065476129 22.7614094430775964 0.0000000000000000 12.0000000000000000 24
1.3640717135185310  -4.6549643281058692 23.7478076928790323 0.0000000000000000 12.0000000000000000 25
1.4143099110983388  -4.7670477254998014 24.7109432829581692 0.0000000000000000 12.0000000000000000 26
1.4644557126169833  -4.8737678679964755 25.6487821374748748 0.0000000000000000 12.0000000000000000 27
1.5145254943635444  -4.9752772128362999 26.5596517935208212 0.0000000000000000 12.0000000000000000 28
1.5645341919407785  -5.0717369417487603 27.4422187534142736 0.0000000000000000 12.0000000000000000 29
1.6144953702824354  -5.1633149926616166 28.2954645649290946 0.0000000000000000 12.0000000000000000 30
1.6644212933817557  -5.2501843412667313 29.1186611289023993 0.0000000000000000 12.0000000000000000 31
1.7143229935128506  -5.3325214922635009 29.9113456446887831 0.0000000000000000 12.0000000000000000 32
1.7642103399029034  -5.4105051462471447 30.6732955381110415 0.0000000000000000 12.0000000000000000 33
1.8140921068849791  -5.4843150146132436 31.4045036676405829 0.0000000000000000 12.0000000000000000 34
1.8639760415587905  -5.5541307609624502 32.1051540667108810 0.0000000000000000 12.0000000000000000 35
1.9138689309373749  -5.6201310529325710 32.7755984485020875 0.0000000000000000 12.0000000000000000 36
1.9637766684845190  -5.6824927129351694 33.4163336706627803 0.0000000000000000 12.0000000000000000 37
2.0137043198694244  -5.7413899598368561 34.0279803289604104 0.0000000000000000 12.0000000000000000 38
2.0636561876949080  -5.7969937362122099 34.6112626196285973 0.0000000000000000 12.0000000000000000 39
2.1136358749020761  -5.8494711174914995 35.1669895799741994 0.0000000000000000 12.0000000000000000 40
2.1636463465223090  -5.8989848002659810 35.6960377860304092 0.0000000000000000 12.0000000000000000 41
2.2136899894376230  -5.9456926673548276 36.1993355554930858 0.0000000000000000 12.0000000000000000 42
2.2637686698215527  -5.9897474271428841 36.6778486748012824 0.0000000000000000 12.0000000000000000 43
2.3138837879614313  -6.0312963243194737 37.1325676419487039 0.0000000000000000 12.0000000000000000 44
2.3640363302053027  -6.0704809186177027 37.5644963922208746 0.0000000000000000 12.0000000000000000 45
2.4142269178282363  -6.1074369275777745 37.9746424531143489 0.0000000000000000 12.0000000000000000 46
2.4644558526693543  -6.1422941288174027 38.3640084575394269 0.0000000000000000 12.0000000000000000 47
2.5147231594486850  -6.1751763168421920 38.7335849311416638 0.0000000000000000 12.0000000000000000 48
2.5650286247288836  -6.2062013091017043 39.0843442600993356 0.0000000000000000 12.0000000000000000 49
2.6153718325386617  -6.2354809958066486 39.4172357398099678 0.0000000000000000 12.0000000000000000 50
2.6657521967207045  -6.2631214279692173 39.7331816020983339 0.0000000000000000 12.0000000000000000 51
2.7161689901060209  -6.2892229382018474 40.0330739185233284 0.0000000000000000 12.0000000000000000 52
2.7666213706486240  -6.3138802889925989 40.3177722795625328 0.0000000000000000 12.0000000000000000 53
2.8171084046791979  -6.3371828434478195 40.5881021534427617 0.0000000000000000 12.0000000000000000 54
2.8676290874543264  -6.3592147538334736 40.8448538337194762 0.0000000000000000 12.0000000000000000 55
2.9181823611895461  -6.3800551636345135 41.0887818909846914 0.0000000000000000 12.0000000000000000 56
2.9687671307706740  -6.3997784192680314 41.3206050509475062 0.0000000000000000 12.0000000000000000 57
3.0193822773392820  -6.4184542880143951 41.5410064282892719 0.0000000000000000 12.0000000000000000 58
3.0700266699458019  -6.4361481791567527 41.7506340528979365 0.0000000000000000 12.0000000000000000 59
3.1206991754581415  -6.4529213657330917 41.9501016321472733 0.0000000000000000 12.0000000000000000 60
3.1713986669057519  -6.4688312046974863 42.1399894996571973 0.0000000000000000 12.0000000000000000 61
3.2221240304293945  -6.4839313536528254 42.3208457073508555 0.0000000000000000 12.0000000000000000 62
3.2728741709959368  -6.4982719826525326 42.4931872235448083 0.0000000000000000 12.0000000000000000 63
3.3236480170259322  -6.5118999798712167 42.6575012052282716 0.0000000000000000 12.0000000000000000 64
3.3744445240698249  -6.5248591502137252 42.8142463175954262 0.0000000000000000 12.0000000000000000 65
3.4252626776567019  -6.5371904061688255 42.9638540782874188 0.0000000000000000 12.0000000000000000 66
3.4761014954278662  -6.5489319504194246 43.1067302076985968 0.0000000000000000 12.0000000000000000 67
3.5269600286562914  -6.5601194498973587 43.2432559701268815 0.0000000000000000 12.0000000000000000 68
3.5778373632423617  -6.5707862011199900 43.3737894935326267 0.0000000000000000 12.0000000000000000 69
3.6287326202663066  -6.5809632867702579 43.4986670582502057 0.0000000000000000 12.0000000000000000 70
3.6796449561684828  -6.5906797235842145 43.6182043472077154 0.0000000000000000 12.0000000000000000 71
3.7305735626200991  -6.5999626016928810 43.7326976520905646 0.0000000000000000 12.0000000000000000 72
3.7815176661391954  -6.6088372156307216 43.8424250314693040 0.0000000000000000 12.0000000000000000 73
3.8324765274996224  -6.6173271872738351 43.9476474182369685 0.0000000000000000 12.0000000000000000 74
3.8834494409743865  -6.6254545810087517 44.0486096747977527 0.0000000000000000 12.0000000000000000 75
3.9344357334490274  -6.6332400114597627 44.1455415953470123 0.0000000000000000 12.0000000000000000 76
3.9854347634356153  -6.6407027441205493 44.2386588553093816 0.0000000000000000 12.0000000000000000 77
4.0364459200134339  -6.6478607892462040 44.3281639085826455 0.0000000000000000 12.0000000000000000 78
4.0874686217184548  -6.6547309893656283 44.4142468336893970 0.0000000000000000 12.0000000000000000 79
4.1385023154002036  -6.6613291007733988 44.4970861302895244 0.0000000000000000 12.0000000000000000 80
4.1895464750615590  -6.6676698693549294 44.5768494677658680 0.0000000000000000 12.0000000000000000 81
4.2406006006943873  -6.6737671010906894 44.6536943877841708 0.0000000000000000 12.0000000000000000 82
4.2916642171215846  -6.6796337275743500 44.7277689628525081 0.0000000000000000 12.0000000000000000 83
4.3427368728541138  -6.6852818668674692 44.7992124129827261 0.0000000000000000 12.0000000000000000 84
4.3938181389699231  -6.6907228799994085 44.8681556825900856 0.0000000000000000 12.0000000000000000 85
4.4449076080201397  -6.6959674234067172 44.9347219797705151 0.0000000000000000 12.0000000000000000 86
4.4960048929667353  -6.7010254975911039 44.9990272800706634 0.0000000000000000 12.0000000000000000 87
4.5471096261547341  -6.7059064922599010 45.0611807968231446 0.0000000000000000 12.0000000000000000 88
4.5982214583211984  -6.7106192281977251 45.1212854200590883 0.0000000000000000 12.0000000000000000 89
4.6493400576424779  -6.7151719961030079 45.1794381259407771 0.0000000000000000 12.0000000000000000 90
4.7004651088205254  -6.7195725926085572 45.2357303585781949 0.0000000000000000 12.0000000000000000 91
4.7515963122086751  -6.7238283536910259 45.2902483860089262 0.0000000000000000 12.0000000000000000 92
4.8027333829767507  -6.7279461856607456 45.3430736320349581 0.0000000000000000 12.0000000000000000 93
4.8538760503151206  -6.7319325939101304 45.3942829855197090 0.0000000000000000 12.0000000000000000 94
4.9050240566769778  -6.7357937095868010 45.4439490886615545 0.0000000000000000 12.0000000000000000 95
4.9561771570579660  -6.7395353143455869 45.4921406056715014 0.0000000000000000 12.0000000000000000 96
5.0073351183120742  -6.7431628633227181 45.5389224731976725 0.0000000000000000 12.0000000000000000 97
5.0584977185026023  -6.7466815064649701 45.5843561337556764 0.0000000000000000 12.0000000000000000 98
5.1096647462869376  -6.7500961083369573 45.6284997533446699 0.0000000000000000 12.0000000000000000 99
5.1608360003337985  -6.7534112665204180 45.6714084243512701 0.0000000000000000 12.0000000000000000 100
5.2120112887715750  -6.7566313287110376 45.7131343547711282 0.0000000000000000 12.0000000000000000 101
5.2631904286663875  -6.7597604086102780 45.7537270447084907 0.0000000000000000 12.0000000000000000 102
5.3143732455284862  -6.7628024007023599 45.7932334510480814 0.0000000000000000 12.0000000000000000 103
5.3655595728456120  -6.7657609939996748 45.8316981411318523 0.0000000000000000 12.0000000000000000 104
5.4167492516419902  -6.7686396848335288 45.8691634362156009 0.0000000000000000 12.0000000000000000 105
5.4679421300616387  -6.7714417887612424 45.9056695454244377 0.0000000000000000 12.0000000000000000 106
5.5191380629747275  -6.7741704516551682 45.9412546908764696 0.0000000000000000 12.0000000000000000 107
5.5703369116057511  -6.7768286600341465 45.9759552245951113 0.0000000000000000 12.0000000000000000 108
5.6215385431823606  -6.7794192506932323 46.0098057377864791 0.0000000000000000 12.0000000000000000 109
5.6727428306036778  -6.7819449196832693 46.0428391630164526 0.0000000000000000 12.0000000000000000 110
5.7239496521270690  -6.7844082306878617 46.0750868697833553 0.0000000000000000 12.0000000000000000 111
5.7751588910722900  -6.7868116228416540 46.1065787539463088 0.0000000000000000 12.0000000000000000 112
5.8263704355420671  -6.7891574180304701 46.1373433214357789 0.0000000000000000 12.0000000000000000 113
5.8775841781581590  -6.7914478277106802 46.1674077666419080 0.0000000000000000 12.0000000000000000 114
5.9288000158120235  -6.7936849592823716 46.1967980458473804 0.0000000000000000 12.0000000000000000 115
5.9800178494292542  -6.7958708220482267 46.2255389460449067 0.0000000000000000 12.0000000000000000 116
6.0312375837470036  -6.7980073327875310 46.2536541494549596 0.0000000000000000 12.0000000000000000 117
6.0824591271036397  -6.8000963209725809 46.2811662940358275 0.0000000000000000 12.0000000000000000 118
6.1336823912399403  -6.8021395336525856 46.3080970302577981 0.0000000000000000 12.0000000000000000 119
6.1849072911111636  -6.8041386400283876 46.3344670743928901 0.0000000000000000 12.0000000000000000 120
6.2361337447093668  -6.8060952357394200 46.3602962585538023 0.0000000000000000 12.0000000000000000 121
6.2873616728953925  -6.8080108468828655 46.3856035776989017 0.0000000000000000 12.0000000000000000 122
6.3385909992399689  -6.8098869337833428 46.4104072338043778 0.0000000000000000 12.0000000000000000 123
6.3898216498734097  -6.8117248945302249 46.4347246773905837 0.0000000000000000 12.0000000000000000 124
6.4410535533434139  -6.8135260682982999 46.4585726465761297 0.0000000000000000 12.0000000000000000 125
6.4922866404805379  -6.8152917384663994 46.4819672038207372 0.0000000000000000 12.0000000000000000 126
6.5435208442708639  -6.8170231355475890 46.5049237705073750 0.0000000000000000 12.0000000000000000 127
6.5947560997355090  -6.8187214399433556 46.5274571595022550 0.0000000000000000 12.0000000000000000 128
6.6459923438165616  -6.8203877845335574 46.5495816058230787 0.0000000000000000 12.0000000000000000 129
6.6972295152691101  -6.8220232571128436 46.5713107955354815 0.0000000000000000 12.0000000000000000 130
6.7484675545590109  -6.8236289026836348 46.5926578929906583 0.0000000000000000 12.0000000000000000 131
6.7997064037661019  -6.8252057256149108 46.6136355665077673 0.0000000000000000 12.0000000000000000 132
6.8509460064925403  -6.8267546916755322 46.6342560125994510 0.0000000000000000 12.0000000000000000 133
6.9021863077760299  -6.8282767299500708 46.6545309788305573 0.0000000000000000 12.0000000000000000 134
6.9534272540076172  -6.8297727346446484 46.6744717853946867 0.0000000000000000 12.0000000000000000 135
7.0046687928538685  -6.8312435667897935 46.6940893454879244 0.0000000000000000 12.0000000000000000 136
7.0559108731831603  -6.8326900558466557 46.7133941845525555 0.0000000000000000 12.0000000000000000 137
7.1071534449958840  -6.8341130012227858 46.7323964584602294 0.0000000000000000 12.0000000000000000 138
7.1583964593583564  -6.8355131737029486 46.7511059706981200 0.0000000000000000 12.0000000000000000 139
7.2096398683402345  -6.8368913168002834 46.7695321886182143 0.0000000000000000 12.0000000000000000 140
7.2608836249552766  -6.8382481480326707 46.7876842588057826 0.0000000000000000 12.0000000000000000 141
7.3121276831052491  -6.8395843601288746 46.8055710216191017 0.0000000000000000 12.0000000000000000 142
7.3633719975268503  -6.8409006221686663 46.8232010249494834 0.0000000000000000 12.0000000000000000 143
7.4146165237414738  -6.8421975806609776 46.8405825372476059 0.0000000000000000 12.0000000000000000 144
7.4658612180076798  -6.8434758605636992 46.8577235598584068 0.0000000000000000 12.0000000000000000 145
7.5171060372762417  -6.8447360662486654 46.8746318387053833 0.0000000000000000 12.0000000000000000 146
7.5683509391476385  -6.8459787824150267 46.8913148753613527 0.0000000000000000 12.0000000000000000 147
7.6195958818318772  -6.8472045749540076 46.9077799375407807 0.0000000000000000 12.0000000000000000 148
7.6708408241105115  -6.8484139917680045 46.9240340690474724 0.0000000000000000 12.0000000000000000 149
7.7220857253007908  -6.8496075635464901 46.9400840992074322 0.0000000000000000 12.0000000000000000 150
7.7733305452217900  -6.8507858045014185 46.9559366518169696 0.0000000000000000 12.0000000000000000 151
7.8245752441624656  -6.8519492130642625 46.9715981536324279 0.0000000000000000 12.0000000000000000 152
7.8758197828515168  -6.8530982725470269 46.9870748424278375 0.0000000000000000 12.0000000000000000 153
7.9270641224289999  -6.8542334517691650 47.0023727746438738 0.0000000000000000 12.0000000000000000 154
7.9783082244195622  -6.8553552056524030 47.0174978326511521 0.0000000000000000 12.0000000000000000 155
8.0295520507072897  -6.8564639757851999 47.0324557316487883 0.0000000000000000 12.0000000000000000 156
8.0807955635120354  -6.8575601909585888 47.0472520262181106 0.0000000000000000 12.0000000000000000 157
8.1320387253671740  -6.8586442676749684 47.0618921165505739 0.0000000000000000 12.0000000000000000 158
8.1832814990987597  -6.8597166106313150 47.0763812543670781 0.0000000000000000 12.0000000000000000 159
8.2345238478059564  -6.8607776131782341 47.0907245485455093 0.0000000000000000 12.0000000000000000 160
8.2857657348427374  -6.8618276577561845 47.1049269704721567 0.0000000000000000 12.0000000000000000 161
8.3370071238007775  -6.8628671163100634 47.1189933591314656 0.0000000000000000 12.0000000000000000 162
8.3882479784934798  -6.8638963506833832 47.1329284259482364 0.0000000000000000 12.0000000000000000 163
8.4394882629411008  -6.8649157129930511 47.1467367593949476 0.0000000000000000 12.0000000000000000 164
8.4907279413569192  -6.8659255459858795 47.1604228293769125 0.0000000000000000 12.0000000000000000 165
8.5419669781344076  -6.8669261833777124 47.1739909914065265 0.0000000000000000 12.0000000000000000 166
8.5932053378353483  -6.8679179501761407 47.1874454905776375 0.0000000000000000 12.0000000000000000 167
8.6444429851788929  -6.8689011629876155 47.2007904653501740 0.0000000000000000 12.0000000000000000 168
8.6956798850314652  -6.8698761303098470 47.2140299511552470 0.0000000000000000 12.0000000000000000 169
8.7469160023975423  -6.8708431528101448 47.2271678838290327 0.0000000000000000 12.0000000000000000 170
8.7981513024112221  -6.8718025235905484 47.2402081028849850 0.0000000000000000 12.0000000000000000 171
8.8493857503285689  -6.8727545284403053 47.2531543546319668 0.0000000000000000 12.0000000000000000 172
8.9006193115207122  -6.8736994460764427 47.2660102951461880 0.0000000000000000 12.0000000000000000 173
8.9518519514676509  -6.8746375483729505 47.2787794931042171 0.0000000000000000 12.0000000000000000 174
9.0030836357527448  -6.8755691005792396 47.2914654324841450 0.0000000000000000 12.0000000000000000 175
9.0543143300578777  -6.8764943615283034 47.3040715151408904 0.0000000000000000 12.0000000000000000 176
9.1055440001592380  -6.8774135838352155 47.3166010632626381 0.0000000000000000 12.0000000000000000 177
9.1567726119237207  -6.8783270140863468 47.3290573217132788 0.0000000000000000 12.0000000000000000 178
9.2080001313059157  -6.8792348930198131 47.3414434602671435 0.0000000000000000 12.0000000000000000 179
9.2592265243456620  -6.8801374556975539 47.3537625757407596 0.0000000000000000 12.0000000000000000 180
9.3104517571661347  -6.8810349316694852 47.3660176940268229 0.0000000000000000 12.0000000000000000 181
9.3616757959724808  -6.8819275451300799 47.3782117720350584 0.0000000000000000 12.0000000000000000 182
9.4128986070509466  -6.8828155150677297 47.3903476995439661 0.0000000000000000 12.0000000000000000 183
9.4641201567684856  -6.8836990554073019 47.4024283009684453 0.0000000000000000 12.0000000000000000 184
9.5153404115728577  -6.8845783751461243 47.4144563370465022 0.0000000000000000 12.0000000000000000 185
9.5665593379931693  -6.8854536784838016 47.4264345064492687 0.0000000000000000 12.0000000000000000 186
9.6177769026408502  -6.8863251649460695 47.4383654473177074 0.0000000000000000 12.0000000000000000 187
9.6689930722110837  -6.8871930295030346 47.4502517387295057 0.0000000000000000 12.0000000000000000 188
9.7202078134845991  -6.8880574626820330 47.4620959020992927 0.0000000000000000 12.0000000000000000 189
9.7714210933299093  -6.8889186506753521 47.4739004025153406 0.0000000000000000 12.0000000000000000 190
9.8226328787058907  -6.8897767754430808 47.4856676500155288 0.0000000000000000 12.0000000000000000 191
9.8738431366647834  -6.8906320148112776 47.4974000008054489 0.0000000000000000 12.0000000000000000 192
9.9250518343554912  -6.8914845425657045 47.5090997584211578 0.0000000000000000 12.0000000000000000 193
9.9762589390272911  -6.8923345285413085 47.5207691748392591 0.0000000000000000 12.0000000000000000 194
