 # inv_tmp, energy, phys_var, phys_doublon, phys_num, step_i
0.0548998501334075  -0.4299719423635999 3.3863652424731203 0.0000000000000000 0.0000000000000000 1
0.1092709412308552  -0.6062555601974192 3.6200158579386819 0.0000000000000000 0.0000000000000000 2
0.1631129440825320  -0.7843277782057179 3.9080799116020115 0.0000000000000000 0.0000000000000000 3
0.2164291948796929  -0.9635898911280452 4.2512884665144748 0.0000000000000000 0.0000000000000000 4
0.2692264272025900  -1.1434561751811465 4.6497709904472488 0.0000000000000000 0.0000000000000000 5
0.3215144189265133  -1.3233649677863191 5.1030705559126144 0.0000000000000000 0.0000000000000000 6
0.3733055815013551  -1.5027877796388658 5.6101756623338801 0.0000000000000000 0.0000000000000000 7
0.4246145202911877  -1.6812361221836889 6.1695651735128774 0.0000000000000000 0.0000000000000000 8
0.4754575930512306  -1.8582659380528626 6.7792623943038457 0.0000000000000000 0.0000000000000000 9
0.5258524897165779  -2.0334797136351468 7.4368942963405065 0.0000000000000000 0.0000000000000000 10
0.5758178512529863  -2.2065265120345723 8.1397522791491959 0.0000000000000000 0.0000000000000000 11
0.6253729392157960  -2.3771002789079372 8.8848515111056052 0.0000000000000000 0.0000000000000000 12
0.6745373616486320  -2.5449368385667861 9.6689867061601067 0.0000000000000000 0.0000000000000000 13
0.7233308556318579  -2.7098100156959291 10.4887830327602867 0.0000000000000000 0.0000000000000000 14
0.7717731225526068  -2.8715272964887353 11.3407416182191803 0.0000000000000000 0.0000000000000000 15
0.8198837091923002  -3.0299253921320823 12.2212797336948533 0.0000000000000000 0.0000000000000000 16
0.8676819260127413  -3.1848659983505700 13.1267661847286945 0.0000000000000000 0.0000000000000000 17
0.9151867934356237  -3.3362319673074721 14.0535526834276254 0.0000000000000000 0.0000000000000000 18
0.9624170072404831  -3.4839240309733892 14.9980020583077867 0.0000000000000000 0.0000000000000000 19
1.0093909152062808  -3.6278581443598004 15.9565140997772943 0.0000000000000000 0.0000000000000000 20
1.0561264985463401  -3.7679634568482978 16.9255496843294537 0.0000000000000000 0.0000000000000000 21
1.1026413533137509  -3.9041808723820104 17.9016536110466191 0.0000000000000000 0.0000000000000000 22
1.1489526686007419  -4.0364621251294377 18.8814763584756378 0.0000000000000000 0.0000000000000000 23
1.1950771998802252  -4.1647692758348374 19.8617947597750160 0.0000000000000000 0.0000000000000000 24
1.2410312371434569  -4.2890745240929489 20.8395314219744030 0.0000000000000000 0.0000000000000000 25
1.2868305685174510  -4.4093602314008216 21.8117725948579633 0.0000000000000000 0.0000000000000000 26
1.3324904407772771  -4.5256190569745200 22.7757841315470486 0.0000000000000000 0.0000000000000000 27
1.3780255186079617  -4.6378541208507134 23.7290251743238727 0.0000000000000000 0.0000000000000000 28
1.4234498446464194  -4.7460791246965375 24.6691592382024254 0.0000000000000000 0.0000000000000000 29
1.4687768022883116  -4.8503183782054116 25.5940624402847519 0.0000000000000000 0.0000000000000000 30
1.5140190830289493  -4.9506066964246509 26.5018287224343325 0.0000000000000000 0.0000000000000000 31
1.5591886597746127  -5.0469891496334220 27.3907720255841589 0.0000000000000000 0.0000000000000000 32
1.6042967671619344  -5.1395206616021891 28.2594254846327360 0.0000000000000000 0.0000000000000000 33
1.6493538895031965  -5.2282654636855117 29.1065378140176421 0.0000000000000000 0.0000000000000000 34
1.6943697565711517  -5.3132964209990536 29.9310671389208345 0.0000000000000000 0.0000000000000000 35
1.7393533470754690  -5.3946942529303019 30.7321725915501780 0.0000000000000000 0.0000000000000000 36
1.7843128993817445  -5.4725466736471091 31.5092040344403053 0.0000000000000000 0.0000000000000000 37
1.8292559287922880  -5.5469474794468674 32.2616902936934196 0.0000000000000000 0.0000000000000000 38
1.8741892505471751  -5.6179956091561563 32.9893262865881951 0.0000000000000000 0.0000000000000000 39
1.9191190076104430  -5.6857942017939660 33.6919594131174946 0.0000000000000000 0.0000000000000000 40
1.9640507022719005  -5.7504496727844803 34.3695755534084313 0.0000000000000000 0.0000000000000000 41
2.0089892306096120  -5.8120708265374148 35.0222849763853290 0.0000000000000000 0.0000000000000000 42
2.0539389189106951  -5.8707680195329406 35.6503084229960479 0.0000000000000000 0.0000000000000000 43
2.0989035612276576  -5.9266523844137167 36.2539635829489200 0.0000000000000000 0.0000000000000000 44
2.1438864573441481  -5.9798351221884332 36.8336521397569214 0.0000000000000000 0.0000000000000000 45
2.1888904505291764  -6.0304268666156862 37.3898475169154878 0.0000000000000000 0.0000000000000000 46
2.2339179645655527  -6.0785371222353337 37.9230834196297764 0.0000000000000000 0.0000000000000000 47
2.2789710396413390  -6.1242737753737924 38.4339432325125756 0.0000000000000000 0.0000000000000000 48
2.3240513667886846  -6.1677426757627689 38.9230503045112357 0.0000000000000000 0.0000000000000000 49
2.3691603206402472  -6.2090472851477534 39.3910591280631053 0.0000000000000000 0.0000000000000000 50
2.4142989903482164  -6.2482883883774676 39.8386473999332793 0.0000000000000000 0.0000000000000000 51
2.4594682085744286  -6.2855638619053771 40.2665089359952333 0.0000000000000000 0.0000000000000000 52
2.5046685785124905  -6.3209684943438091 40.6753474009006624 0.0000000000000000 0.0000000000000000 53
2.5499004989449885  -6.3545938536364801 41.0658708056331108 0.0000000000000000 0.0000000000000000 54
2.5951641873717186  -6.3865281955064734 41.4387867208172480 0.0000000000000000 0.0000000000000000 55
2.6404597012696884  -6.4168564080503909 41.7947981508573321 0.0000000000000000 0.0000000000000000 56
2.6857869575634910  -6.4456599876481757 42.1346000130363905 0.0000000000000000 0.0000000000000000 57
2.7311457503968231  -6.4730170417106869 42.4588761662049450 0.0000000000000000 0.0000000000000000 58
2.7765357673033630  -6.4990023141694948 42.7682969352685234 0.0000000000000000 0.0000000000000000 59
2.8219566038789967  -6.5236872300058586 43.0635170800413363 0.0000000000000000 0.0000000000000000 60
2.8674077770582720  -6.5471399555043757 43.3451741599218394 0.0000000000000000 0.0000000000000000 61
2.9128887370966647  -6.5694254712911997 43.6138872490627207 0.0000000000000000 0.0000000000000000 62
2.9583988783573907  -6.5906056555699255 43.8702559600955482 0.0000000000000000 0.0000000000000000 63
3.0039375489975391  -6.6107393752961352 44.1148597379073948 0.0000000000000000 0.0000000000000000 64
3.0495040596435894  -6.6298825833318391 44.3482573883623701 0.0000000000000000 0.0000000000000000 65
3.0950976911412864  -6.6480884198929182 44.5709868101490798 0.0000000000000000 0.0000000000000000 66
3.1407177014594962  -6.6654073168467196 44.7835649010709744 0.0000000000000000 0.0000000000000000 67
3.1863633318223243  -6.6818871036341454 44.9864876130505280 0.0000000000000000 0.0000000000000000 68
3.2320338121384822  -6.6975731137824983 45.1802301328721185 0.0000000000000000 0.0000000000000000 69
3.2777283657917802  -6.7125082911442195 45.3652471682366567 0.0000000000000000 0.0000000000000000 70
3.3234462138517427  -6.7267332951441432 45.5419733210406932 0.0000000000000000 0.0000000000000000 71
3.3691865787586823  -6.7402866044463119 45.7108235319291438 0.0000000000000000 0.0000000000000000 72
3.4149486875332267  -6.7532046185626449 45.8721935821118763 0.0000000000000000 0.0000000000000000 73
3.4607317745562054  -6.7655217570217774 46.0264606401885459 0.0000000000000000 0.0000000000000000 74
3.5065350839609795  -6.7772705557989470 46.1739838433079797 0.0000000000000000 0.0000000000000000 75
3.5523578716767861  -6.7884817607784740 46.3151049034052917 0.0000000000000000 0.0000000000000000 76
3.5981994071583716  -6.7991844180807561 46.4501487305300884 0.0000000000000000 0.0000000000000000 77
3.6440589748341656  -6.8094059611368616 46.5794240664087624 0.0000000000000000 0.0000000000000000 78
3.6899358753024329  -6.8191722944372524 46.7032241223902105 0.0000000000000000 0.0000000000000000 79
3.7358294263022800  -6.8285078739175322 46.8218272168145333 0.0000000000000000 0.0000000000000000 80
3.7817389634839724  -6.8374357839747786 46.9354974076319849 0.0000000000000000 0.0000000000000000 81
3.8276638410008603  -6.8459778111332641 47.0444851167928491 0.0000000000000000 0.0000000000000000 82
3.8736034319431618  -6.8541545143993829 47.1490277435381557 0.0000000000000000 0.0000000000000000 83
3.9195571286319986  -6.8619852923626787 47.2493502642548862 0.0000000000000000 0.0000000000000000 84
3.9655243427903830  -6.8694884471135795 47.3456658170244395 0.0000000000000000 0.0000000000000000 85
4.0115045056062675  -6.8766812450595154 47.4381762693990510 0.0000000000000000 0.0000000000000000 86
4.0574970677013242  -6.8835799747294573 47.5270727682902958 0.0000000000000000 0.0000000000000000 87
4.1035014990178160  -6.8902000016634739 47.6125362711581275 0.0000000000000000 0.0000000000000000 88
4.1495172886346925  -6.8965558204884587 47.6947380579474896 0.0000000000000000 0.0000000000000000 89
4.1955439445229352  -6.9026611042843795 47.7738402234429103 0.0000000000000000 0.0000000000000000 90
4.2415809932491690  -6.9085287513472515 47.8499961498993542 0.0000000000000000 0.0000000000000000 91
4.2876279796356123  -6.9141709294558300 47.9233509599675358 0.0000000000000000 0.0000000000000000 92
4.3336844663836080  -6.9195991177488931 47.9940419500651672 0.0000000000000000 0.0000000000000000 93
4.3797500336672011  -6.9248241463191551 48.0621990044559482 0.0000000000000000 0.0000000000000000 94
4.4258242787024917  -6.9298562336283798 48.1279449903899135 0.0000000000000000 0.0000000000000000 95
4.4719068152979213  -6.9347050218462201 48.1913961347311925 0.0000000000000000 0.0000000000000000 96
4.5179972733899865  -6.9393796102130150 48.2526623825587109 0.0000000000000000 0.0000000000000000 97
4.5640952985684136  -6.9438885865240083 48.3118477382704299 0.0000000000000000 0.0000000000000000 98
4.6102005515943052  -6.9482400568295049 48.3690505897560783 0.0000000000000000 0.0000000000000000 99
4.6563127079143598  -6.9524416734423617 48.4243640162279831 0.0000000000000000 0.0000000000000000 100
4.7024314571738755  -6.9565006613409297 48.4778760803161930 0.0000000000000000 0.0000000000000000 101
4.7485565027308754  -6.9604238430521814 48.5296701050430528 0.0000000000000000 0.0000000000000000 102
4.7946875611734008  -6.9642176620963738 48.5798249362963048 0.0000000000000000 0.0000000000000000 103
4.8408243618417170  -6.9678882050711906 48.6284151914179006 0.0000000000000000 0.0000000000000000 104
4.8869666463569370  -6.9714412224498528 48.6755114945202436 0.0000000000000000 0.0000000000000000 105
4.9331141681573083  -6.9748821481643173 48.7211806991322902 0.0000000000000000 0.0000000000000000 106
4.9792666920432476  -6.9782161180414422 48.7654860987664307 0.0000000000000000 0.0000000000000000 107
5.0254239937319847  -6.9814479871565762 48.8084876259821243 0.0000000000000000 0.0000000000000000 108
5.0715858594225480  -6.9845823461660830 48.8502420405078723 0.0000000000000000 0.0000000000000000 109
5.1177520853716505  -6.9876235366769723 48.8908031069636735 0.0000000000000000 0.0000000000000000 110
5.1639224774809369  -6.9905756657090610 48.9302217627104739 0.0000000000000000 0.0000000000000000 111
5.2100968508959191  -6.9934426193020514 48.9685462763318213 0.0000000000000000 0.0000000000000000 112
5.2562750296168348  -6.9962280753171839 49.0058223972350930 0.0000000000000000 0.0000000000000000 113
5.3024568461215802  -6.9989355154805084 49.0420934968394704 0.0000000000000000 0.0000000000000000 114
5.3486421410007994  -7.0015682367121368 49.0774007017980551 0.0000000000000000 0.0000000000000000 115
5.3948307626051220  -7.0041293617835381 49.1117830196824627 0.0000000000000000 0.0000000000000000 116
5.4410225667045102  -7.0066218493425403 49.1452774575385121 0.0000000000000000 0.0000000000000000 117
5.4872174161596279  -7.0090485033433882 49.1779191337024741 0.0000000000000000 0.0000000000000000 118
5.5334151806050693  -7.0114119819173073 49.2097413832497210 0.0000000000000000 0.0000000000000000 119
5.5796157361442980  -7.0137148057167256 49.2407758574280336 0.0000000000000000 0.0000000000000000 120
5.6258189650560677  -7.0159593657646582 49.2710526174118115 0.0000000000000000 0.0000000000000000 121
5.6720247555121244  -7.0181479308387349 49.3006002226953086 0.0000000000000000 0.0000000000000000 122
5.7182330013059124  -7.0202826544177688 49.3294458144273023 0.0000000000000000 0.0000000000000000 123
5.7644436015920357  -7.0223655812170449 49.3576151939733734 0.0000000000000000 0.0000000000000000 124
5.8106564606361948  -7.0243986533370304 49.3851328969773391 0.0000000000000000 0.0000000000000000 125
5.8568714875753107  -7.0263837160486569 49.4120222631782440 0.0000000000000000 0.0000000000000000 126
5.9030885961875299  -7.0283225232371054 49.4383055022261431 0.0000000000000000 0.0000000000000000 127
5.9493077046718312  -7.0302167425245283 49.4640037557259618 0.0000000000000000 0.0000000000000000 128
5.9955287354369107  -7.0320679600910703 49.4891371557267448 0.0000000000000000 0.0000000000000000 129
6.0417516148990549  -7.0338776852123335 49.5137248798607814 0.0000000000000000 0.0000000000000000 130
6.0879762732886986  -7.0356473545303011 49.5377852033266279 0.0000000000000000 0.0000000000000000 131
6.1342026444653559  -7.0373783360738162 49.5613355478981248 0.0000000000000000 0.0000000000000000 132
6.1804306657406398  -7.0390719330436058 49.5843925281319997 0.0000000000000000 0.0000000000000000 133
6.2266602777090707  -7.0407293873760626 49.6069719949365862 0.0000000000000000 0.0000000000000000 134
6.2728914240863745  -7.0423518830990437 49.6290890766544521 0.0000000000000000 0.0000000000000000 135
6.3191240515550131  -7.0439405494921568 49.6507582178038120 0.0000000000000000 0.0000000000000000 136
6.3653581096166425  -7.0454964640633282 49.6719932156145703 0.0000000000000000 0.0000000000000000 137
6.4115935504512374  -7.0470206553526076 49.6928072544872990 0.0000000000000000 0.0000000000000000 138
6.4578303287826353  -7.0485141055735632 49.7132129384958432 0.0000000000000000 0.0000000000000000 139
6.5040684017501986  -7.0499777531020396 49.7332223220476237 0.0000000000000000 0.0000000000000000 140
6.5503077287864109  -7.0514124948213288 49.7528469388084602 0.0000000000000000 0.0000000000000000 141
6.5965482715000947  -7.0528191883323705 49.7720978289928908 0.0000000000000000 0.0000000000000000 142
6.6427899935650689  -7.0541986540370551 49.7909855651153777 0.0000000000000000 0.0000000000000000 143
6.6890328606139970  -7.0555516771020965 49.8095202762911526 0.0000000000000000 0.0000000000000000 144
6.7352768401372032  -7.0568790093106912 49.8277116711715280 0.0000000000000000 0.0000000000000000 145
6.7815219013862587  -7.0581813708085548 49.8455690595926910 0.0000000000000000 0.0000000000000000 146
6.8277680152821176  -7.0594594517506009 49.8631013730124124 0.0000000000000000 0.0000000000000000 147
6.8740151543276209  -7.0607139138542028 49.8803171838052748 0.0000000000000000 0.0000000000000000 148
6.9202632925241661  -7.0619453918644934 49.8972247234820543 0.0000000000000000 0.0000000000000000 149
6.9665124052923684  -7.0631544949369394 49.9138318998959818 0.0000000000000000 0.0000000000000000 150
7.0127624693965327  -7.0643418079420428 49.9301463134938928 0.0000000000000000 0.0000000000000000 151
7.0590134628727688  -7.0655078926967700 49.9461752726677446 0.0000000000000000 0.0000000000000000 152
7.1052653649605872  -7.0666532891269949 49.9619258082582860 0.0000000000000000 0.0000000000000000 153
7.1515181560378229  -7.0677785163650011 49.9774046872593374 0.0000000000000000 0.0000000000000000 154
7.1977718175587322  -7.0688840737858571 49.9926184257693649 0.0000000000000000 0.0000000000000000 155
7.2440263319951281  -7.0699704419862144 50.0075733012326893 0.0000000000000000 0.0000000000000000 156
7.2902816827803978  -7.0710380837089142 50.0222753640117688 0.0000000000000000 0.0000000000000000 157
7.3365378542562949  -7.0720874447165176 50.0367304483283704 0.0000000000000000 0.0000000000000000 158
7.3827948316223662  -7.0731189546167617 50.0509441826100243 0.0000000000000000 0.0000000000000000 159
7.4290526008878919  -7.0741330276426968 50.0649219992753984 0.0000000000000000 0.0000000000000000 160
7.4753111488262212  -7.0751300633901586 50.0786691439908651 0.0000000000000000 0.0000000000000000 161
7.5215704629314093  -7.0761104475150116 50.0921906844281608 0.0000000000000000 0.0000000000000000 162
7.5678305313770222  -7.0770745523924798 50.1054915185513892 0.0000000000000000 0.0000000000000000 163
7.6140913429770363  -7.0780227377407812 50.1185763824603754 0.0000000000000000 0.0000000000000000 164
7.6603528871487114  -7.0789553512110537 50.1314498578149568 0.0000000000000000 0.0000000000000000 165
7.7066151538773591  -7.0798727289455812 50.1441163788645952 0.0000000000000000 0.0000000000000000 166
7.7528781336829224  -7.0807751961060266 50.1565802391047129 0.0000000000000000 0.0000000000000000 167
7.7991418175882519  -7.0816630673735013 50.1688455975816439 0.0000000000000000 0.0000000000000000 168
7.8454061970890390  -7.0825366474219713 50.1809164848651577 0.0000000000000000 0.0000000000000000 169
7.8916712641253053  -7.0833962313665610 50.1927968087077261 0.0000000000000000 0.0000000000000000 170
7.9379370110543617  -7.0842421051881859 50.2044903594078846 0.0000000000000000 0.0000000000000000 171
7.9842034306251977  -7.0850745461358198 50.2160008148941301 0.0000000000000000 0.0000000000000000 172
8.0304705159542138  -7.0858938231076838 50.2273317455451860 0.0000000000000000 0.0000000000000000 173
8.0767382605022320  -7.0867001970125134 50.2384866187608594 0.0000000000000000 0.0000000000000000 174
8.1230066580527343  -7.0874939211120651 50.2494688032980079 0.0000000000000000 0.0000000000000000 175
8.1692757026912552  -7.0882752413458689 50.2602815733838355 0.0000000000000000 0.0000000000000000 176
8.2155453887858894  -7.0890443966392471 50.2709281126195293 0.0000000000000000 0.0000000000000000 177
8.2618157109688362  -7.0898016191955229 50.2814115176854131 0.0000000000000000 0.0000000000000000 178
8.3080866641189743  -7.0905471347732858 50.2917348018586168 0.0000000000000000 0.0000000000000000 179
8.3543582433453505  -7.0912811629495698 50.3019008983536438 0.0000000000000000 0.0000000000000000 180
8.4006304439716128  -7.0920039173697118 50.3119126634955194 0.0000000000000000 0.0000000000000000 181
8.4469032615212765  -7.0927156059845853 50.3217728797345032 0.0000000000000000 0.0000000000000000 182
8.4931766917038267  -7.0934164312760011 50.3314842585113951 0.0000000000000000 0.0000000000000000 183
8.5394507304015921  -7.0941065904708083 50.3410494429810740 0.0000000000000000 0.0000000000000000 184
8.5857253736573664  -7.0947862757444051 50.3504710106025328 0.0000000000000000 0.0000000000000000 185
8.6320006176627260  -7.0954556744142030 50.3597514756020317 0.0000000000000000 0.0000000000000000 186
8.6782764587470158  -7.0961149691235779 50.3688932913168514 0.0000000000000000 0.0000000000000000 187
8.7245528933669849  -7.0967643380168468 50.3778988524254743 0.0000000000000000 0.0000000000000000 188
8.7708299180970126  -7.0974039549057633 50.3867704970708701 0.0000000000000000 0.0000000000000000 189
8.8171075296199071  -7.0980339894279663 50.3955105088822251 0.0000000000000000 0.0000000000000000 190
8.8633857247182579  -7.0986546071978287 50.4041211189007186 0.0000000000000000 0.0000000000000000 191
8.9096645002663024  -7.0992659699501104 50.4126045074144145 0.0000000000000000 0.0000000000000000 192
8.9559438532222782  -7.0998682356768326 50.4209628057072194 0.0000000000000000 0.0000000000000000 193
9.0022237806212448  -7.1004615587576581 50.4291980977262853 0.0000000000000000 0.0000000000000000 194
9.0485042795683537  -7.1010460900842247 50.4373124216723170 0.0000000000000000 0.0000000000000000 195
9.0947853472325271  -7.1016219771786702 50.4453077715168092 0.0000000000000000 0.0000000000000000 196
