 # inv_tmp, energy, phys_var, phys_doublon, phys_num, step_i
0.0616151974250239  -0.4595243313744009 3.4631089959111385 0.0000000000000000 12.0000000000000000 1
0.1224715548190715  -0.6606452078545304 3.7540147669563124 0.0000000000000000 12.0000000000000000 2
0.1825687816682511  -0.8643262291288397 4.1162281383209560 0.0000000000000000 12.0000000000000000 3
0.2419135858663198  -1.0696598595366171 4.5503713827358627 0.0000000000000000 12.0000000000000000 4
0.3005192979961036  -1.2757332613283840 5.0560332650915250 0.0000000000000000 12.0000000000000000 5
0.3584052144789163  -1.4816557215740991 5.6318176969346112 0.0000000000000000 12.0000000000000000 6
0.4155957122056204  -1.6865843145979156 6.2754363161267968 0.0000000000000000 12.0000000000000000 7
0.4721192080211770  -1.8897459119738198 6.9838347073579712 0.0000000000000000 12.0000000000000000 8
0.5280070477318783  -2.0904540523110384 7.7533391153144757 0.0000000000000000 12.0000000000000000 9
0.5832924099167932  -2.2881197491546379 8.5798095192315529 0.0000000000000000 12.0000000000000000 10
0.6380093005002954  -2.4822559526149335 9.4587858492477537 0.0000000000000000 12.0000000000000000 11
0.6921916971293975  -2.6724759911609643 10.3856166081862611 0.0000000000000000 12.0000000000000000 12
0.7458728811470579  -2.8584868242096437 11.3555626661326325 0.0000000000000000 12.0000000000000000 13
0.7990849727314938  -3.0400782839004519 12.3638728847940733 0.0000000000000000 12.0000000000000000 14
0.8518586644393250  -3.2171096595529161 13.4058319193704953 0.0000000000000000 12.0000000000000000 15
0.9042231319252108  -3.3894949931968248 14.4767835944704206 0.0000000000000000 12.0000000000000000 16
0.9562060890273818  -3.5571883406259905 15.5721353951199415 0.0000000000000000 12.0000000000000000 17
1.0078339478862766  -3.7201700493444987 16.6873507661088851 0.0000000000000000 12.0000000000000000 18
1.0591320428813860  -3.8784348518248803 17.8179361242389618 0.0000000000000000 12.0000000000000000 19
1.1101248791567941  -4.0319823030922199 18.9594289042415411 0.0000000000000000 12.0000000000000000 20
1.1608363714362000  -4.1808098311367692 20.1073917780509177 0.0000000000000000 12.0000000000000000 21
1.2112900457637366  -4.3249084345090374 21.2574166257614401 0.0000000000000000 12.0000000000000000 22
1.2615091848623756  -4.4642608646708926 22.4051401082761501 0.0000000000000000 12.0000000000000000 23
1.3115169061781740  -4.5988419774735565 23.5462709906363941 0.0000000000000000 12.0000000000000000 24
1.3613361696793647  -4.7286208312356024 24.6766278555948055 0.0000000000000000 12.0000000000000000 25
1.4109897195248193  -4.8535640482994502 25.7921846549376355 0.0000000000000000 12.0000000000000000 26
1.4604999693649094  -4.9736399402196536 26.8891207521413236 0.0000000000000000 12.0000000000000000 27
1.5098888450066004  -5.0888229191170691 27.9638717463697901 0.0000000000000000 12.0000000000000000 28
1.5591776003551490  -5.1990977723055938 29.0131774189797973 0.0000000000000000 12.0000000000000000 29
1.6083866230024313  -5.3044634554320726 30.0341235520459406 0.0000000000000000 12.0000000000000000 30
1.6575352447859586  -5.4049361514519134 31.0241750451289597 0.0000000000000000 12.0000000000000000 31
1.7066415704281324  -5.5005514391313017 31.9811985955337370 0.0000000000000000 12.0000000000000000 32
1.7557223343819641  -5.5913655066835037 32.9034741003750497 0.0000000000000000 12.0000000000000000 33
1.8047927926674892  -5.6774554266120498 33.7896947889686601 0.0000000000000000 12.0000000000000000 34
1.8538666531544048  -5.7589185721060794 34.6389568258212179 0.0000000000000000 12.0000000000000000 35
1.9029560447291183  -5.8358713010888508 35.4507396889562330 0.0000000000000000 12.0000000000000000 36
1.9520715232832577  -5.9084470611695599 36.2248790040184261 0.0000000000000000 12.0000000000000000 37
2.0012221105844170  -5.9767940789969156 36.9615337042323375 0.0000000000000000 12.0000000000000000 38
2.0504153608609283  -6.0410727937823143 37.6611494109337457 0.0000000000000000 12.0000000000000000 39
2.0996574493057998  -6.1014531805890684 38.3244198217078633 0.0000000000000000 12.0000000000000000 40
2.1489532765903667  -6.1581120879953106 38.9522476908274484 0.0000000000000000 12.0000000000000000 41
2.1983065837618363  -6.2112306902414023 39.5457067269318330 0.0000000000000000 12.0000000000000000 42
2.2477200724618243  -6.2609921287076240 40.1060054486754609 0.0000000000000000 12.0000000000000000 43
2.2971955261343457  -6.3075793935938327 40.6344537568524657 0.0000000000000000 12.0000000000000000 44
2.3467339286975366  -6.3511734753632716 41.1324327204263227 0.0000000000000000 12.0000000000000000 45
2.3963355779602340  -6.3919517976320339 41.6013678461072374 0.0000000000000000 12.0000000000000000 46
2.4460001918199716  -6.4300869290031937 42.0427059127265679 0.0000000000000000 12.0000000000000000 47
2.4957270059498748  -6.4657455607659093 42.4578953040143219 0.0000000000000000 12.0000000000000000 48
2.5455148622510535  -6.4990877300698608 42.8483696644580050 0.0000000000000000 12.0000000000000000 49
2.5953622878095177  -6.5302662636744451 43.2155346285328363 0.0000000000000000 12.0000000000000000 50
2.6452675644561694  -6.5594264151383808 43.5607573284451348 0.0000000000000000 12.0000000000000000 51
2.6952287892943998  -6.5867056678430549 43.8853583639891554 0.0000000000000000 12.0000000000000000 52
2.7452439267447346  -6.6122336770609182 44.1906059147479056 0.0000000000000000 12.0000000000000000 53
2.7953108527732882  -6.6361323259811567 44.4777116847725793 0.0000000000000000 12.0000000000000000 54
2.8454273920339408  -6.6585158728548191 44.7478283888669850 0.0000000000000000 12.0000000000000000 55
2.8955913486754028  -6.6794911689575045 45.0020485142559323 0.0000000000000000 12.0000000000000000 56
2.9458005315545619  -6.6991579296917880 45.2414041190420164 0.0000000000000000 12.0000000000000000 57
2.9960527745657588  -6.7176090437234617 45.4668674574358818 0.0000000000000000 12.0000000000000000 58
3.0463459527494616  -6.7349309074695842 45.6793522498264366 0.0000000000000000 12.0000000000000000 59
3.0966779947889411  -6.7512037744753588 45.8797154423619986 0.0000000000000000 12.0000000000000000 60
3.1470468924446360  -6.7665021111998778 46.0687593252274539 0.0000000000000000 12.0000000000000000 61
3.1974507074160985  -6.7808949524685538 46.2472339008995519 0.0000000000000000 12.0000000000000000 62
3.2478875760631674  -6.7944462513469244 46.4158394132216330 0.0000000000000000 12.0000000000000000 63
3.2983557123628668  -6.8072152194596729 46.5752289651842091 0.0000000000000000 12.0000000000000000 64
3.3488534094274471  -6.8192566548399824 46.7260111679548089 0.0000000000000000 12.0000000000000000 65
3.3993790398624801  -6.8306212552690129 46.8687527761456550 0.0000000000000000 12.0000000000000000 66
3.4499310552022111  -6.8413559157766519 47.0039812747610455 0.0000000000000000 12.0000000000000000 67
3.5005079846223897  -6.8515040095446942 47.1321873919481220 0.0000000000000000 12.0000000000000000 68
3.5511084330983445  -6.8611056519034284 47.2538275188116970 0.0000000000000000 12.0000000000000000 69
3.6017310791478487  -6.8701979474612234 47.3693260233574733 0.0000000000000000 12.0000000000000000 70
3.6523746722739956  -6.8788152206711413 47.4790774502939783 0.0000000000000000 12.0000000000000000 71
3.7030380302024244  -6.8869892303342901 47.5834486021317531 0.0000000000000000 12.0000000000000000 72
3.7537200359895371  -6.8947493686785313 47.6827804999211082 0.0000000000000000 12.0000000000000000 73
3.8044196350633115  -6.9021228457457093 47.7773902242114588 0.0000000000000000 12.0000000000000000 74
3.8551358322457552  -6.9091348598784901 47.8675726385061040 0.0000000000000000 12.0000000000000000 75
3.9058676887954813  -6.9158087551283192 47.9536019987351807 0.0000000000000000 12.0000000000000000 76
3.9566143195001544  -6.9221661664144918 48.0357334531574480 0.0000000000000000 12.0000000000000000 77
4.0073748898413557  -6.9282271532563682 48.1142044377011473 0.0000000000000000 12.0000000000000000 78
4.0581486132484539  -6.9340103228808712 48.1892359721277543 0.0000000000000000 12.0000000000000000 79
4.1089347484532812  -6.9395329434784747 48.2610338625956956 0.0000000000000000 12.0000000000000000 80
4.1597325969534822  -6.9448110483462440 48.3297898162580637 0.0000000000000000 12.0000000000000000 81
4.2105415005892866  -6.9498595316178182 48.3956824734797380 0.0000000000000000 12.0000000000000000 82
4.2613608392359623  -6.9546922362394596 48.4588783631335644 0.0000000000000000 12.0000000000000000 83
4.3121900286122576  -6.9593220348096505 48.5195327862527677 0.0000000000000000 12.0000000000000000 84
4.3630285182036150  -6.9637609038581108 48.5777906330948852 0.0000000000000000 12.0000000000000000 85
4.4138757892977933  -6.9680199920994115 48.6337871384258307 0.0000000000000000 12.0000000000000000 86
4.4647313531296939  -6.9721096831569103 48.6876485795699807 0.0000000000000000 12.0000000000000000 87
4.5155947491315302  -6.9760396532150128 48.7394929215031212 0.0000000000000000 12.0000000000000000 88
4.5664655432840986  -6.9798189240220188 48.7894304129957916 0.0000000000000000 12.0000000000000000 89
4.6173433265646180  -6.9834559116319959 48.8375641375482701 0.0000000000000000 12.0000000000000000 90
4.6682277134864405  -6.9869584712426702 48.8839905226006977 0.0000000000000000 12.0000000000000000 91
4.7191183407259389  -6.9903339384566916 48.9287998102532100 0.0000000000000000 12.0000000000000000 92
4.7700148658318318  -6.9935891672664399 48.9720764924943737 0.0000000000000000 12.0000000000000000 93
4.8209169660123559  -6.9967305650371090 49.0138997137115098 0.0000000000000000 12.0000000000000000 94
4.8718243369957568  -6.9997641247395190 49.0543436430457405 0.0000000000000000 12.0000000000000000 95
4.9227366919597744  -7.0026954546625415 49.0934778189559538 0.0000000000000000 12.0000000000000000 96
4.9736537605259414  -7.0055298058153070 49.1313674681713053 0.0000000000000000 12.0000000000000000 97
5.0245752878147254  -7.0082720972111829 49.1680738010396325 0.0000000000000000 12.0000000000000000 98
5.0755010335577104  -7.0109269392090798 49.2036542851196259 0.0000000000000000 12.0000000000000000 99
5.1264307712632684  -7.0134986550721488 49.2381628987160056 0.0000000000000000 12.0000000000000000 100
5.1773642874323125  -7.0159913008904553 49.2716503659213316 0.0000000000000000 12.0000000000000000 101
5.2283013808209553  -7.0184086840012325 49.3041643746010294 0.0000000000000000 12.0000000000000000 102
5.2792418617470993  -7.0207543800288885 49.3357497786423096 0.0000000000000000 12.0000000000000000 103
5.3301855514381185  -7.0230317486565266 49.3664487856815413 0.0000000000000000 12.0000000000000000 104
5.3811322814170417  -7.0252439482308366 49.3963011314247922 0.0000000000000000 12.0000000000000000 105
5.4320818929247610  -7.0273939492937600 49.4253442415875242 0.0000000000000000 12.0000000000000000 106
5.4830342363759659  -7.0294845471262590 49.4536133823961706 0.0000000000000000 12.0000000000000000 107
5.5339891708466844  -7.0315183733821138 49.4811418005171859 0.0000000000000000 12.0000000000000000 108
5.5849465635913962  -7.0334979068833281 49.5079608532114719 0.0000000000000000 12.0000000000000000 109
5.6359062895878962  -7.0354254836424301 49.5341001294463013 0.0000000000000000 12.0000000000000000 110
5.6868682311081251  -7.0373033061716974 49.5595875626395923 0.0000000000000000 12.0000000000000000 111
5.7378322773133927  -7.0391334521340863 49.5844495356564323 0.0000000000000000 12.0000000000000000 112
5.7887983238724479  -7.0409178823863563 49.6087109786301852 0.0000000000000000 12.0000000000000000 113
5.8397662726010031  -7.0426584484604557 49.6323954601333810 0.0000000000000000 12.0000000000000000 114
5.8907360311214196  -7.0443568995256598 49.6555252721841924 0.0000000000000000 12.0000000000000000 115
5.9417075125412904  -7.0460148888703484 49.6781215095347406 0.0000000000000000 12.0000000000000000 116
5.9926806351498225  -7.0476339799392260 49.7002041436539486 0.0000000000000000 12.0000000000000000 117
6.0436553221309399  -7.0492156519588658 49.7217920917847209 0.0000000000000000 12.0000000000000000 118
6.0946315012920991  -7.0507613051818705 49.7429032814268837 0.0000000000000000 12.0000000000000000 119
6.1456091048079271  -7.0522722657774537 49.7635547105697285 0.0000000000000000 12.0000000000000000 120
6.1965880689777793  -7.0537497903941766 49.7837625039737830 0.0000000000000000 12.0000000000000000 121
6.2475683339964467  -7.0551950704183817 49.8035419657783009 0.0000000000000000 12.0000000000000000 122
6.2985498437372236  -7.0566092359502122 49.8229076286909702 0.0000000000000000 12.0000000000000000 123
6.3495325455466567  -7.0579933595172584 49.8418732999959531 0.0000000000000000 12.0000000000000000 124
6.4005163900502939  -7.0593484595444593 49.8604521046002702 0.0000000000000000 12.0000000000000000 125
6.4515013309688367  -7.0606755035973334 49.8786565253208352 0.0000000000000000 12.0000000000000000 126
6.5024873249440889  -7.0619754114144282 49.8964984406006522 0.0000000000000000 12.0000000000000000 127
6.5534743313741899  -7.0632490577436453 49.9139891598284180 0.0000000000000000 12.0000000000000000 128
6.6044623122575858  -7.0644972749959631 49.9311394564233453 0.0000000000000000 12.0000000000000000 129
6.6554512320453014  -7.0657208557290918 49.9479595988349274 0.0000000000000000 12.0000000000000000 130
6.7064410575010251  -7.0669205549727536 49.9644593795974430 0.0000000000000000 12.0000000000000000 131
6.7574317575686100  -7.0680970924062700 49.9806481425681994 0.0000000000000000 12.0000000000000000 132
6.8084233032465864  -7.0692511543984535 49.9965348084694625 0.0000000000000000 12.0000000000000000 133
6.8594156674692970  -7.0703833959191353 50.0121278988466855 0.0000000000000000 12.0000000000000000 134
6.9104088249943398  -7.0714944423307919 50.0274355585457116 0.0000000000000000 12.0000000000000000 135
6.9614027522959363  -7.0725848910683755 50.0424655768066060 0.0000000000000000 12.0000000000000000 136
7.0123974274639593  -7.0736553132146671 50.0572254070635410 0.0000000000000000 12.0000000000000000 137
7.0633928301082980  -7.0747062549780768 50.0717221855345187 0.0000000000000000 12.0000000000000000 138
7.1143889412682846  -7.0757382390792980 50.0859627486792007 0.0000000000000000 12.0000000000000000 139
7.1653857433269357  -7.0767517660527419 50.0999536495970972 0.0000000000000000 12.0000000000000000 140
7.2163832199297380  -7.0777473154683310 50.1137011734343574 0.0000000000000000 12.0000000000000000 141
7.2673813559077498  -7.0787253470787839 50.1272113518620586 0.0000000000000000 12.0000000000000000 142
7.3183801372048292  -7.0796863018971870 50.1404899766847763 0.0000000000000000 12.0000000000000000 143
7.3693795508087065  -7.0806306032093662 50.1535426126347801 0.0000000000000000 12.0000000000000000 144
7.4203795846857838  -7.0815586575252087 50.1663746094031495 0.0000000000000000 12.0000000000000000 145
7.4713802277194157  -7.0824708554728257 50.1789911129554085 0.0000000000000000 12.0000000000000000 146
7.5223814696515205  -7.0833675726391689 50.1913970761767985 0.0000000000000000 12.0000000000000000 147
7.5733833010273361  -7.0842491703605344 50.2035972688889274 0.0000000000000000 12.0000000000000000 148
7.6243857131431856  -7.0851159964660599 50.2155962872768526 0.0000000000000000 12.0000000000000000 149
7.6753886979970645  -7.0859683859772034 50.2273985627631916 0.0000000000000000 12.0000000000000000 150
7.7263922482419440  -7.0868066617659515 50.2390083703635639 0.0000000000000000 12.0000000000000000 151
7.7773963571416180  -7.0876311351743144 50.2504298365549928 0.0000000000000000 12.0000000000000000 152
7.8284010185290009  -7.0884421065975314 50.2616669466876971 0.0000000000000000 12.0000000000000000 153
7.8794062267667115  -7.0892398660332532 50.2727235519678430 0.0000000000000000 12.0000000000000000 154
7.9304119767098662  -7.0900246935987568 50.2836033760377390 0.0000000000000000 12.0000000000000000 155
7.9814182636709381  -7.0907968600182230 50.2943100211779921 0.0000000000000000 12.0000000000000000 156
8.0324250833866007  -7.0915566270818564 50.3048469741543869 0.0000000000000000 12.0000000000000000 157
8.0834324319864397  -7.0923042480786229 50.3152176117314696 0.0000000000000000 12.0000000000000000 158
8.1344403059634445  -7.0930399682041827 50.3254252058725484 0.0000000000000000 12.0000000000000000 159
8.1854487021461892  -7.0937640249455560 50.3354729286454301 0.0000000000000000 12.0000000000000000 160
8.2364576176726150  -7.0944766484439112 50.3453638568513711 0.0000000000000000 12.0000000000000000 161
8.2874670499653273  -7.0951780618368190 50.3551009763939064 0.0000000000000000 12.0000000000000000 162
8.3384769967083532  -7.0958684815812081 50.3646871864032661 0.0000000000000000 12.0000000000000000 163
8.3894874558252308  -7.0965481177582017 50.3741253031310734 0.0000000000000000 12.0000000000000000 164
8.4404984254584488  -7.0972171743608810 50.3834180636285751 0.0000000000000000 12.0000000000000000 165
8.4915099039500603  -7.0978758495660550 50.3925681292219210 0.0000000000000000 12.0000000000000000 166
8.5425218898235116  -7.0985243359909536 50.4015780887961000 0.0000000000000000 12.0000000000000000 167
8.5935343817665508  -7.0991628209357778 50.4104504618990958 0.0000000000000000 12.0000000000000000 168
8.6445473786151847  -7.0997914866129186 50.4191877016769041 0.0000000000000000 12.0000000000000000 169
8.6955608793386521  -7.1004105103636430 50.4277921976491115 0.0000000000000000 12.0000000000000000 170
8.7465748830253212  -7.1010200648630182 50.4362662783350046 0.0000000000000000 12.0000000000000000 171
8.7975893888694738  -7.1016203183137403 50.4446122137383810 0.0000000000000000 12.0000000000000000 172
8.8486043961589580  -7.1022114346295346 50.4528322176997506 0.0000000000000000 12.0000000000000000 173
8.8996199042636253  -7.1027935736087269 50.4609284501235322 0.0000000000000000 12.0000000000000000 174
8.9506359126245272  -7.1033668910985925 50.4689030190876338 0.0000000000000000 12.0000000000000000 175
9.0016524207438380  -7.1039315391510049 50.4767579828422299 0.0000000000000000 12.0000000000000000 176
9.0526694281754487  -7.1044876661698781 50.4844953517040835 0.0000000000000000 12.0000000000000000 177
9.1036869345162046  -7.1050354170509280 50.4921170898527905 0.0000000000000000 12.0000000000000000 178
9.1547049393977549  -7.1055749333141414 50.4996251170342347 0.0000000000000000 12.0000000000000000 179
9.2057234424789733  -7.1061063532294231 50.5070213101768815 0.0000000000000000 12.0000000000000000 180
9.2567424434389238  -7.1066298119357940 50.5143075049258030 0.0000000000000000 12.0000000000000000 181
9.3077619419703428  -7.1071454415545103 50.5214854970993628 0.0000000000000000 12.0000000000000000 182
9.3587819377735908  -7.1076533712964860 50.5285570440727270 0.0000000000000000 12.0000000000000000 183
9.4098024305510872  -7.1081537275642850 50.5355238660925608 0.0000000000000000 12.0000000000000000 184
9.4608234200021606  -7.1086466340490606 50.5423876475268514 0.0000000000000000 12.0000000000000000 185
9.5118449058182950  -7.1091322118227023 50.5491500380535541 0.0000000000000000 12.0000000000000000 186
9.5628668876788030  -7.1096105794254250 50.5558126537912358 0.0000000000000000 12.0000000000000000 187
9.6138893652468038  -7.1100818529491647 50.5623770783757607 0.0000000000000000 12.0000000000000000 188
9.6649123381655979  -7.1105461461168833 50.5688448639850492 0.0000000000000000 12.0000000000000000 189
9.7159358060553220  -7.1110035703581183 50.5752175323156479 0.0000000000000000 12.0000000000000000 190
9.7669597685099347  -7.1114542348809753 50.5814965755136257 0.0000000000000000 12.0000000000000000 191
9.8179842250944684  -7.1118982467406795 50.5876834570619707 0.0000000000000000 12.0000000000000000 192
9.8690091753425637  -7.1123357109049934 50.5937796126274364 0.0000000000000000 12.0000000000000000 193
9.9200346187542419  -7.1127667303166167 50.5997864508688409 0.0000000000000000 12.0000000000000000 194
