 # inv_tmp, energy, phys_var, phys_doublon, phys_num, step_i
0.0615821245043561  -0.4769568457893263 3.4236785588043013 0.0000000000000000 12.0000000000000000 1
0.1224201147959355  -0.6743689684303880 3.7059843862026720 0.0000000000000000 12.0000000000000000 2
0.1825161504554086  -0.8738031403192992 4.0601483768693392 0.0000000000000000 12.0000000000000000 3
0.2418771659120876  -1.0746392278619323 4.4872767592872123 0.0000000000000000 12.0000000000000000 4
0.3005144002780590  -1.2762755819595761 4.9877085212183836 0.0000000000000000 12.0000000000000000 5
0.3584428695980052  -1.4781384086619882 5.5610496038119237 0.0000000000000000 12.0000000000000000 6
0.4156807911622234  -1.6796895542290462 6.2062248393559951 0.0000000000000000 12.0000000000000000 7
0.4722489908885364  -1.8804323750824756 6.9215414899168444 0.0000000000000000 12.0000000000000000 8
0.5281703247241756  -2.0799154314473665 7.7047577612274356 0.0000000000000000 12.0000000000000000 9
0.5834691432907337  -2.2777338441603021 8.5531498607940541 0.0000000000000000 12.0000000000000000 10
0.6381708253759155  -2.4735282861620465 9.4635720299239861 0.0000000000000000 12.0000000000000000 11
0.6923014003079097  -2.6669817355933474 10.4325054237915573 0.0000000000000000 12.0000000000000000 12
0.7458872719198733  -2.8578142821467067 11.4560935924941258 0.0000000000000000 12.0000000000000000 13
0.7989550481852632  -3.0457764346052487 12.5301644259987093 0.0000000000000000 12.0000000000000000 14
0.8515314713858968  -3.2306415066186198 13.6502405297785927 0.0000000000000000 12.0000000000000000 15
0.9036434347371831  -3.4121977429149641 14.8115418501700749 0.0000000000000000 12.0000000000000000 16
0.9553180636720676  -3.5902408767507521 16.0089857429284947 0.0000000000000000 12.0000000000000000 17
1.0065828343481413  -3.7645677748055779 17.2371903963209583 0.0000000000000000 12.0000000000000000 18
1.0574656990799289  -3.9349717282203418 18.4904874746839845 0.0000000000000000 12.0000000000000000 19
1.1079951887103894  -4.1012397955956335 19.7629490238789352 0.0000000000000000 12.0000000000000000 20
1.1582004654550435  -4.2631524098884608 21.0484321605627258 0.0000000000000000 12.0000000000000000 21
1.2081113061111433  -4.4204852462096760 22.3406430324949596 0.0000000000000000 12.0000000000000000 22
1.2577580039789777  -4.5730131348612355 23.6332192433999424 0.0000000000000000 12.0000000000000000 23
1.3071711873608700  -4.7205156173234029 24.9198276815453852 0.0000000000000000 12.0000000000000000 24
1.3563815619109987  -4.8627836031295395 26.1942727721516597 0.0000000000000000 12.0000000000000000 25
1.4054195922672053  -4.9996265073509143 27.4506088364767606 0.0000000000000000 12.0000000000000000 26
1.4543151443796969  -5.1308792380295269 28.6832496420559480 0.0000000000000000 12.0000000000000000 27
1.5030971131889810  -5.2564084573284982 29.8870684132595947 0.0000000000000000 12.0000000000000000 28
1.5517930606470920  -5.3761176479383233 31.0574824682232773 0.0000000000000000 12.0000000000000000 29
1.6004288867838219  -5.4899506597724317 32.1905180910539528 0.0000000000000000 12.0000000000000000 30
1.6490285521804267  -5.5978935707453603 33.2828530111663810 0.0000000000000000 12.0000000000000000 31
1.6976138646062455  -5.6999748496072389 34.3318357021563614 0.0000000000000000 12.0000000000000000 32
1.7462043365213480  -5.7962639420997313 35.3354824119187398 0.0000000000000000 12.0000000000000000 33
1.7948171143860581  -5.8868685031791284 36.2924542283146820 0.0000000000000000 12.0000000000000000 34
1.8434669758033897  -5.9719305627884873 37.2020174735788913 0.0000000000000000 12.0000000000000000 35
1.8921663867911465  -6.0516219411877810 38.0639912776572729 0.0000000000000000 12.0000000000000000 36
1.9409256090590064  -6.1261392268797197 38.8786863353240761 0.0000000000000000 12.0000000000000000 37
1.9897528459956930  -6.1956986029432271 39.6468386738252718 0.0000000000000000 12.0000000000000000 38
2.0386544159710924  -6.2605307642813415 40.3695418372043378 0.0000000000000000 12.0000000000000000 39
2.0876349422790508  -6.3208761167145386 41.0481803242290368 0.0000000000000000 12.0000000000000000 40
2.1366975503222494  -6.3769803955796398 41.6843664836650802 0.0000000000000000 12.0000000000000000 41
2.1858440642238293  -6.4290907914456081 42.2798824415852152 0.0000000000000000 12.0000000000000000 42
2.2350751967356612  -6.4774526269198640 42.8366280589346857 0.0000000000000000 12.0000000000000000 43
2.2843907279460396  -6.5223065929370536 43.3565754232265590 0.0000000000000000 12.0000000000000000 44
2.3337896697667531  -6.5638865258131496 43.8417299794108715 0.0000000000000000 12.0000000000000000 45
2.3832704144426362  -6.6024176872583675 44.2940981027557186 0.0000000000000000 12.0000000000000000 46
2.4328308663532110  -6.6381154974842351 44.7156607037404683 0.0000000000000000 12.0000000000000000 47
2.4824685571689518  -6.6711846652672193 45.1083523193852471 0.0000000000000000 12.0000000000000000 48
2.5321807450039517  -6.7018186570434022 45.4740450729225714 0.0000000000000000 12.0000000000000000 49
2.5819644986012871  -6.7301994485874737 45.8145368599470331 0.0000000000000000 12.0000000000000000 50
2.6318167678297484  -6.7564975065157595 46.1315431310013935 0.0000000000000000 12.0000000000000000 51
2.6817344418931142  -6.7808719518787957 46.4266916766506768 0.0000000000000000 12.0000000000000000 52
2.7317143966851933  -6.8034708638011416 46.7015198722380518 0.0000000000000000 12.0000000000000000 53
2.7817535326910354  -6.8244316869877686 46.9574738985402078 0.0000000000000000 12.0000000000000000 54
2.8318488047580264  -6.8438817126040767 47.1959095161519002 0.0000000000000000 12.0000000000000000 55
2.8819972449567492  -6.8619386073288231 47.4180940319132276 0.0000000000000000 12.0000000000000000 56
2.9321959796333306  -6.8787109701499674 47.6252091526162431 0.0000000000000000 12.0000000000000000 57
2.9824422416317962  -6.8942989006661985 47.8183544731448933 0.0000000000000000 12.0000000000000000 58
3.0327333785434440  -6.9087945662644561 47.9985513924057372 0.0000000000000000 12.0000000000000000 59
3.0830668577246803  -6.9222827585907902 48.1667472907056080 0.0000000000000000 12.0000000000000000 60
3.1334402687179193  -6.9348414322630774 48.3238198367893617 0.0000000000000000 12.0000000000000000 61
3.1838513236134087  -6.9465422208441012 48.4705813219462556 0.0000000000000000 12.0000000000000000 62
3.2342978558037307  -6.9574509267603322 48.6077829429287505 0.0000000000000000 12.0000000000000000 63
3.2847778175071611  -6.9676279831736103 48.7361189754624604 0.0000000000000000 12.0000000000000000 64
3.3352892763705144  -6.9771288868433414 48.8562307964212152 0.0000000000000000 12.0000000000000000 65
3.3858304114058062  -6.9860046018055666 48.9687107258369565 0.0000000000000000 12.0000000000000000 66
3.4363995084671934  -6.9943019342854980 49.0741056703109280 0.0000000000000000 12.0000000000000000 67
3.4869949554341946  -7.0020638796896471 49.1729205575332600 0.0000000000000000 12.0000000000000000 68
3.5376152372333527  -7.0093299428247242 49.2656215579001895 0.0000000000000000 12.0000000000000000 69
3.5882589308022808  -7.0161364326899616 49.3526390939787234 0.0000000000000000 12.0000000000000000 70
3.6389247000767679  -7.0225167333097946 49.4343706420995233 0.0000000000000000 12.0000000000000000 71
3.6896112910624592  -7.0285015521333705 49.5111833329016235 0.0000000000000000 12.0000000000000000 72
3.7403175270370528  -7.0341191475409444 49.5834163594134623 0.0000000000000000 12.0000000000000000 73
3.7910423039162802  -7.0393955369769374 49.6513832024007442 0.0000000000000000 12.0000000000000000 74
3.8417845858068094  -7.0443546871846952 49.7153736833783597 0.0000000000000000 12.0000000000000000 75
3.8925434007610584  -7.0490186879564218 49.7756558559873170 0.0000000000000000 12.0000000000000000 76
3.9433178367425472  -7.0534079107391019 49.8324777464632476 0.0000000000000000 12.0000000000000000 77
3.9941070378053696  -7.0575411533579882 49.8860689537468716 0.0000000000000000 12.0000000000000000 78
4.0449102004875117  -7.0614357720369423 49.9366421194636416 0.0000000000000000 12.0000000000000000 79
4.0957265704148185  -7.0651078018118474 49.9843942775746726 0.0000000000000000 12.0000000000000000 80
4.1465554391102106  -7.0685720663517255 50.0295080930114153 0.0000000000000000 12.0000000000000000 81
4.1973961410011782  -7.0718422781229666 50.0721529980750546 0.0000000000000000 12.0000000000000000 82
4.2482480506174811  -7.0749311297564041 50.1124862348334830 0.0000000000000000 12.0000000000000000 83
4.2991105799702973  -7.0778503774054400 50.1506538111963209 0.0000000000000000 12.0000000000000000 84
4.3499831761035788  -7.0806109168161253 50.1867913778042052 0.0000000000000000 12.0000000000000000 85
4.4008653188083020  -7.0832228527673715 50.2210250323402221 0.0000000000000000 12.0000000000000000 86
4.4517565184901997  -7.0856955624813889 50.2534720573651441 0.0000000000000000 12.0000000000000000 87
4.5026563141817633  -7.0880377535506476 50.2842415972977435 0.0000000000000000 12.0000000000000000 88
4.5535642716895239  -7.0902575168783235 50.3134352797068587 0.0000000000000000 12.0000000000000000 89
4.6044799818679207  -7.0923623750837859 50.3411477856587339 0.0000000000000000 12.0000000000000000 90
4.6554030590114550  -7.0943593267833087 50.3674673734662690 0.0000000000000000 12.0000000000000000 91
4.7063331393571826  -7.0962548871182829 50.3924763598197814 0.0000000000000000 12.0000000000000000 92
4.7572698796900612  -7.0980551248688073 50.4162515619398164 0.0000000000000000 12.0000000000000000 93
4.8082129560440157  -7.0997656964590936 50.4388647040782274 0.0000000000000000 12.0000000000000000 94
4.8591620624921026  -7.1013918771326852 50.4603827914065164 0.0000000000000000 12.0000000000000000 95
4.9101169100194575  -7.1029385895496233 50.4808684540654795 0.0000000000000000 12.0000000000000000 96
4.9610772254732094  -7.1044104300342639 50.5003802639084398 0.0000000000000000 12.0000000000000000 97
5.0120427505838610  -7.1058116926811241 50.5189730262478491 0.0000000000000000 12.0000000000000000 98
5.0630132410530475  -7.1071463915070296 50.5366980487132409 0.0000000000000000 12.0000000000000000 99
5.1139884657029215  -7.1084182808202421 50.5536033891431060 0.0000000000000000 12.0000000000000000 100
5.1649682056827393  -7.1096308739616578 50.5697340842646952 0.0000000000000000 12.0000000000000000 101
5.2159522537285596  -7.1107874605587336 50.5851323607619321 0.0000000000000000 12.0000000000000000 102
5.2669404134722404  -7.1118911224199914 50.5998378301915750 0.0000000000000000 12.0000000000000000 103
5.3179324987962042  -7.1129447481862513 50.6138876690801496 0.0000000000000000 12.0000000000000000 104
5.3689283332307021  -7.1139510468441074 50.6273167854177899 0.0000000000000000 12.0000000000000000 105
5.4199277493905367  -7.1149125601977108 50.6401579726599209 0.0000000000000000 12.0000000000000000 106
5.4709305884484563  -7.1158316743861150 50.6524420522506915 0.0000000000000000 12.0000000000000000 107
5.5219366996425991  -7.1167106305257581 50.6641980055952104 0.0000000000000000 12.0000000000000000 108
5.5729459398155932  -7.1175515345504206 50.6754530963275300 0.0000000000000000 12.0000000000000000 109
5.6239581729830839  -7.1183563663146296 50.6862329836484236 0.0000000000000000 12.0000000000000000 110
5.6749732699296249  -7.1191269880206889 50.6965618274421246 0.0000000000000000 12.0000000000000000 111
5.7259911078300298  -7.1198651520241247 50.7064623858193642 0.0000000000000000 12.0000000000000000 112
5.7770115698944133  -7.1205725080676325 50.7159561056806965 0.0000000000000000 12.0000000000000000 113
5.8280345450352815  -7.1212506099892590 50.7250632068435436 0.0000000000000000 12.0000000000000000 114
5.8790599275551818  -7.1219009219465352 50.7338027602308301 0.0000000000000000 12.0000000000000000 115
5.9300876168534717  -7.1225248241947750 50.7421927605779857 0.0000000000000000 12.0000000000000000 116
5.9811175171509463  -7.1231236184544784 50.7502501940771680 0.0000000000000000 12.0000000000000000 117
6.0321495372310920  -7.1236985328997546 50.7579911013428529 0.0000000000000000 12.0000000000000000 118
6.0831835901968700  -7.1242507267970829 50.7654306360517467 0.0000000000000000 12.0000000000000000 119
6.1342195932419905  -7.1247812948212115 50.7725831195812702 0.0000000000000000 12.0000000000000000 120
6.1852574674356999  -7.1252912710728218 50.7794620919444668 0.0000000000000000 12.0000000000000000 121
6.2362971375202374  -7.1257816328204431 50.7860803592951129 0.0000000000000000 12.0000000000000000 122
6.2873385317200698  -7.1262533039874505 50.7924500382554882 0.0000000000000000 12.0000000000000000 123
6.3383815815622064  -7.1267071584030441 50.7985825972983562 0.0000000000000000 12.0000000000000000 124
6.3894262217068274  -7.1271440228347611 50.8044888953970712 0.0000000000000000 12.0000000000000000 125
6.4404723897875948  -7.1275646798186081 50.8101792181408527 0.0000000000000000 12.0000000000000000 126
6.4915200262610160  -7.1279698703015306 50.8156633114963157 0.0000000000000000 12.0000000000000000 127
6.5425690742643035  -7.1283602961099213 50.8209504133831160 0.0000000000000000 12.0000000000000000 128
6.5936194794811787  -7.1287366222566488 50.8260492832180688 0.0000000000000000 12.0000000000000000 129
6.6446711900151341  -7.1290994790981976 50.8309682295704164 0.0000000000000000 12.0000000000000000 130
6.6957241562697032  -7.1294494643525566 50.8357151360600525 0.0000000000000000 12.0000000000000000 131
6.7467783308352818  -7.1297871449877031 50.8402974856205887 0.0000000000000000 12.0000000000000000 132
6.7978336683821272  -7.1301130589897976 50.8447223832401818 0.0000000000000000 12.0000000000000000 133
6.8488901255591514  -7.1304277170193613 50.8489965772836356 0.0000000000000000 12.0000000000000000 134
6.8999476608981434  -7.1307316039633530 50.8531264794933264 0.0000000000000000 12.0000000000000000 135
6.9510062347231347  -7.1310251803901625 50.8571181837574358 0.0000000000000000 12.0000000000000000 136
7.0020658090645549  -7.1313088839142402 50.8609774837287532 0.0000000000000000 12.0000000000000000 137
7.0531263475779360  -7.1315831304764830 50.8647098893709853 0.0000000000000000 12.0000000000000000 138
7.1041878154668758  -7.1318483155460175 50.8683206425031713 0.0000000000000000 12.0000000000000000 139
7.1552501794100163  -7.1321048152487272 50.8718147314089890 0.0000000000000000 12.0000000000000000 140
7.2063134074918187  -7.1323529874273195 50.8751969045718795 0.0000000000000000 12.0000000000000000 141
7.2573774691368955  -7.1325931726375424 50.8784716835930695 0.0000000000000000 12.0000000000000000 142
7.3084423350477152  -7.1328256950846907 50.8816433753456323 0.0000000000000000 12.0000000000000000 143
7.3595079771454781  -7.1330508635043506 50.8847160834135508 0.0000000000000000 12.0000000000000000 144
7.4105743685139869  -7.1332689719909705 50.8876937188616125 0.0000000000000000 12.0000000000000000 145
7.4616414833463560  -7.1334803007776575 50.8905800103791108 0.0000000000000000 12.0000000000000000 146
7.5127092968943776  -7.1336851169703133 50.8933785138364101 0.0000000000000000 12.0000000000000000 147
7.5637777854204220  -7.1338836752390460 50.8960926212919773 0.0000000000000000 12.0000000000000000 148
7.6148469261517233  -7.1340762184695370 50.8987255694837586 0.0000000000000000 12.0000000000000000 149
7.6659166972369182  -7.1342629783768992 50.9012804478372516 0.0000000000000000 12.0000000000000000 150
7.7169870777047160  -7.1344441760844184 50.9037602060202445 0.0000000000000000 12.0000000000000000 151
7.7680580474245948  -7.1346200226693117 50.9061676610720326 0.0000000000000000 12.0000000000000000 152
7.8191295870694022  -7.1347907196775777 50.9085055041331174 0.0000000000000000 12.0000000000000000 153
7.8702016780797690  -7.1349564596098318 50.9107763067998036 0.0000000000000000 12.0000000000000000 154
7.9212743026302332  -7.1351174263799351 50.9129825271265304 0.0000000000000000 12.0000000000000000 155
7.9723474435969868  -7.1352737957480370 50.9151265152968762 0.0000000000000000 12.0000000000000000 156
8.0234210845271683  -7.1354257357295996 50.9172105189833246 0.0000000000000000 12.0000000000000000 157
8.0744952096096032  -7.1355734069818659 50.9192366884142871 0.0000000000000000 12.0000000000000000 158
8.1255698036469362  -7.1357169631690986 50.9212070811657114 0.0000000000000000 12.0000000000000000 159
8.1766448520290744  -7.1358565513078904 50.9231236666936269 0.0000000000000000 12.0000000000000000 160
8.2277203407078670  -7.1359923120936877 50.9249883306226536 0.0000000000000000 12.0000000000000000 161
8.2787962561729813  -7.1361243802096812 50.9268028788049776 0.0000000000000000 12.0000000000000000 162
8.3298725854288751  -7.1362528846190525 50.9285690411628593 0.0000000000000000 12.0000000000000000 163
8.3809493159728774  -7.1363779488416013 50.9302884753275080 0.0000000000000000 12.0000000000000000 164
8.4320264357742314  -7.1364996912156080 50.9319627700856188 0.0000000000000000 12.0000000000000000 165
8.4831039332541316  -7.1366182251458365 50.9335934486452047 0.0000000000000000 12.0000000000000000 166
8.5341817972666689  -7.1367336593384509 50.9351819717303513 0.0000000000000000 12.0000000000000000 167
8.5852600170806372  -7.1368460980235566 50.9367297405149628 0.0000000000000000 12.0000000000000000 168
8.6363385823621623  -7.1369556411661792 50.9382380994047352 0.0000000000000000 12.0000000000000000 169
8.6874174831581410  -7.1370623846662014 50.9397083386754019 0.0000000000000000 12.0000000000000000 170
8.7384967098803887  -7.1371664205480050 50.9411416969758619 0.0000000000000000 12.0000000000000000 171
8.7895762532905408  -7.1372678371402980 50.9425393637030695 0.0000000000000000 12.0000000000000000 172
8.8406561044855909  -7.1373667192467476 50.9439024812566146 0.0000000000000000 12.0000000000000000 173
8.8917362548841066  -7.1374631483079014 50.9452321471787570 0.0000000000000000 12.0000000000000000 174
8.9428166962130309  -7.1375572025548486 50.9465294161867632 0.0000000000000000 12.0000000000000000 175
8.9938974204950881  -7.1376489571551485 50.9477953021034153 0.0000000000000000 12.0000000000000000 176
9.0449784200367453  -7.1377384843513978 50.9490307796908866 0.0000000000000000 12.0000000000000000 177
9.0960596874166786  -7.1378258535928296 50.9502367863935177 0.0000000000000000 12.0000000000000000 178
9.1471412154747807  -7.1379111316603927 50.9514142239944618 0.0000000000000000 12.0000000000000000 179
9.1982229973016256  -7.1379943827855676 50.9525639601904814 0.0000000000000000 12.0000000000000000 180
9.2493050262283933  -7.1380756687633458 50.9536868300896657 0.0000000000000000 12.0000000000000000 181
9.3003872958172522  -7.1381550490596268 50.9547836376358703 0.0000000000000000 12.0000000000000000 182
9.3514697998521310  -7.1382325809133631 50.9558551569639917 0.0000000000000000 12.0000000000000000 183
9.4025525323299064  -7.1383083194337038 50.9569021336894963 0.0000000000000000 12.0000000000000000 184
9.4536354874519688  -7.1383823176924519 50.9579252861360317 0.0000000000000000 12.0000000000000000 185
9.5047186596161435  -7.1384546268120186 50.9589253065038505 0.0000000000000000 12.0000000000000000 186
9.5558020434089652  -7.1385252960491510 50.9599028619825205 0.0000000000000000 12.0000000000000000 187
9.6068856335982744  -7.1385943728746746 50.9608585958108762 0.0000000000000000 12.0000000000000000 188
9.6579694251261365  -7.1386619030493765 50.9617931282864305 0.0000000000000000 12.0000000000000000 189
9.7090534131020529  -7.1387279306963443 50.9627070577275703 0.0000000000000000 12.0000000000000000 190
9.7601375927964718  -7.1387924983698348 50.9636009613900995 0.0000000000000000 12.0000000000000000 191
9.8112219596345636  -7.1388556471209235 50.9644753963415198 0.0000000000000000 12.0000000000000000 192
9.8623065091902475  -7.1389174165600764 50.9653309002941484 0.0000000000000000 12.0000000000000000 193
9.9133912371805035  -7.1389778449167958 50.9661679923998676 0.0000000000000000 12.0000000000000000 194
