 # inv_tmp, energy, phys_var, phys_doublon, phys_num, step_i
0.0225224997581466  7.1999102463492104 88.9752276621363194 1.9502535970213664 8.0000000000000000 1
0.0446276770208310  6.3695225244883220 76.9288181102552500 1.9001524022019791 7.9999999999999982 2
0.0663461756979964  5.5652471769944389 66.3502834952634259 1.8514419638131312 8.0000000000000000 3
0.0877102937424874  4.7906372370891415 57.1809733299556484 1.8044121254041918 7.9999999999999982 4
0.1087528774410106  4.0484099795505193 49.3401132754607659 1.7592952358178831 8.0000000000000018 5
0.1295063685816921  3.3404641685212182 42.7310553945892764 1.7162649513394717 8.0000000000000000 6
0.1500020370833515  2.6679341679831068 37.2472528384920878 1.6754384057959244 7.9999999999999982 7
0.1702694083836332  2.0312703738860991 32.7775799617521031 1.6368809539601954 7.9999999999999982 8
0.1903358764522110  1.4303353865113921 29.2107716328275018 1.6006126093021726 7.9999999999999973 9
0.2102264808258835  0.8645065006598552 26.4388938687408341 1.5666153452795861 8.0000000000000000 10
0.2299638193420794  0.3327769431667881 24.3598662869722844 1.5348405641715834 7.9999999999999991 11
0.2495680662616045  -0.1661496180464917 22.8791300005701146 1.5052162127053086 8.0000000000000000 12
0.2690570668829022  -0.6337747646509488 21.9105947986177263 1.4776532022294178 7.9999999999999991 13
0.2884464832442689  -1.0717329782398239 21.3770132674787199 1.4520509485253599 8.0000000000000000 14
0.3077499699920981  -1.4817316822818594 21.2099248018062845 1.4283019703333169 8.0000000000000018 15
0.3269793641596043  -1.8655031709592760 21.3492965952324276 1.4062955735690505 8.0000000000000000 16
0.3461448769347045  -2.2247673317829895 21.7429675839904277 1.3859207033139262 8.0000000000000000 17
0.3652552792181293  -2.5612037615503183 22.3459791039462132 1.3670680742676442 7.9999999999999982 18
0.3843180757785192  -2.8764317760042917 23.1198552945403222 1.3496316995503530 8.0000000000000000 19
0.4033396651104424  -3.1719968554226083 24.0318783839195866 1.3335099340651200 8.0000000000000000 20
0.4223254837702660  -3.4493621958339955 25.0543893933113289 1.3186061374207922 8.0000000000000000 21
0.4412801351099427  -3.7099042064008190 26.1641334401569736 1.3048290466361070 8.0000000000000018 22
0.4602075030624064  -3.9549109779771934 27.3416603415880388 1.2920929331996529 8.0000000000000000 23
0.4791108520585098  -4.1855829267214375 28.5707851443396095 1.2803176042137365 8.0000000000000036 24
0.4979929143630672  -4.4030349788209175 29.8381090406952509 1.2694282941972412 8.0000000000000000 25
0.5168559661777614  -4.6082998026489221 31.1325984216403810 1.2593554830239935 7.9999999999999991 26
0.5357018938255965  -4.8023317117118118 32.4452181853993409 1.2500346664511870 7.9999999999999982 27
0.5545322512445339  -4.9860109566567044 33.7686145535268025 1.2414060985766766 7.9999999999999982 28
0.5733483099041516  -5.1601481997845813 35.0968423087691548 1.2334145200920104 7.9999999999999964 29
0.5921511021364263  -5.3254890238750860 36.4251313798403089 1.2260088820813200 7.9999999999999982 30
0.6109414587510320  -5.4827183716565413 37.7496879275454731 1.2191420720778541 7.9999999999999982 31
0.6297200416929961  -5.6324648457060871 39.0675254418565316 1.2127706468854988 8.0000000000000000 32
0.6484873723990250  -5.7753048233437472 40.3763217769013139 1.2068545750971373 8.0000000000000000 33
0.6672438564191756  -5.9117663591960801 41.6742984879340099 1.2013569911306237 7.9999999999999973 34
0.6859898047924519  -6.0423328611694131 42.9601192640419356 1.1962439618283707 8.0000000000000000 35
0.7047254525973738  -6.1674465348639629 44.2328046562242037 1.1914842661313512 8.0000000000000000 36
0.7234509750403983  -6.2875115979597052 45.4916606735612348 1.1870491879711809 7.9999999999999991 37
0.7421665013949963  -6.4028972705563190 46.7362191564447187 1.1829123222733999 8.0000000000000018 38
0.7608721270610687  -6.5139405504068586 47.9661881344502916 1.1790493937946667 8.0000000000000000 39
0.7795679239771740  -6.6209487838578989 49.1814106385959846 1.1754380884010567 7.9999999999999991 40
0.7982539495859040  -6.7242020443966179 50.3818306657914690 1.1720578963168053 8.0000000000000000 41
0.8169302545249431  -6.8239553312262036 51.5674651902107328 1.1688899668211523 8.0000000000000000 42
0.8355968891923253  -6.9204406004026993 52.7383812852983667 1.1659169738376705 7.9999999999999964 43
0.8542539093136617  -7.0138686408849473 53.8946775643513263 1.1631229918406822 8.0000000000000000 44
0.8729013806212657  -7.1044308074581757 55.0364692701519616 1.1604933814936036 8.0000000000000000 45
0.8915393827398309  -7.1923006219540770 56.1638764478101962 1.1580146844321555 7.9999999999999982 46
0.9101680123603252  -7.2776352535519244 57.2770147223807342 1.1556745266097197 8.0000000000000000 47
0.9287873857728085  -7.3605768882423668 58.3759882762743558 1.1534615296315651 8.0000000000000036 48
0.9473976408197456  -7.4412539967953464 59.4608846830367952 1.1513652295183214 8.0000000000000000 49
0.9659989383238528  -7.5197825098176585 60.5317713055275277 1.1493760023561879 8.0000000000000000 50
0.9845914630384033  -7.5962669077312208 61.5886930094760956 1.1474849963112790 7.9999999999999982 51
1.0031754241630351  -7.6708012327642816 62.6316709791943040 1.1456840695076904 7.9999999999999982 52
1.0217510554642790  -7.7434700293351542 63.6607024520631128 1.1439657332927371 8.0000000000000000 53
1.0403186150371009  -7.8143492185309000 64.6757612133117163 1.1423231004379564 7.9999999999999964 54
1.0588783847415499  -7.8835069117485954 65.6767987134352040 1.1407498378504419 8.0000000000000000 55
1.0774306693470146  -7.9510041679790815 66.6637456880947354 1.1392401233954526 8.0000000000000000 56
1.0959757954154150  -8.0168956986771818 67.6365141751421959 1.1377886064578306 8.0000000000000000 57
1.1145141099538520  -8.0812305236791886 68.5949998360278812 1.1363903718960549 7.9999999999999982 58
1.1330459788665930  -8.1440525812002669 69.5390844997314446 1.1350409070687568 7.9999999999999991 59
1.1515717852357901  -8.2054012945701142 70.4686388568536017 1.1337360716387932 8.0000000000000000 60
1.1700919274598152  -8.2653120980444523 71.3835252399195497 1.1324720698844977 8.0000000000000000 61
1.1886068172775892  -8.3238169237597788 72.2836004335002684 1.1312454252712822 8.0000000000000000 62
1.2071168777066226  -8.3809446516769022 73.1687184646424953 1.1300529570592275 7.9999999999999982 63
1.2256225409217065  -8.4367215241814986 74.0387333304490483 1.1288917587436615 8.0000000000000000 64
1.2441242461002253  -8.4911715268728294 74.8935016255673816 1.1277591781457976 8.0000000000000000 65
1.2626224372588957  -8.5443167369707762 75.7328850379029888 1.1266527989893567 8.0000000000000000 66
1.2811175611053758  -8.5961776407013897 76.5567526861139243 1.1255704238166169 8.0000000000000000 67
1.2996100649266391  -8.6467734209776026 77.3649832773956234 1.1245100581135539 8.0000000000000018 68
1.3181003945342658  -8.6961222166696839 78.1574670687381285 1.1234698955286386 8.0000000000000000 69
1.3365889922849215  -8.7442413547545570 78.9341076192326199 1.1224483040834790 8.0000000000000036 70
1.3550762951922857  -8.7911475566401016 79.6948233251087288 1.1214438132858140 7.9999999999999982 71
1.3735627331445679  -8.8368571199754378 80.4395487329951209 1.1204551020665177 8.0000000000000000 72
1.3920487272396078  -8.8813860772774582 81.1682356303850980 1.1194809874721707 8.0000000000000036 73
1.4105346882473500  -8.9247503327240914 81.8808539154589710 1.1185204140535996 7.9999999999999982 74
1.4290210152073188  -8.9669657784832300 82.5773922512428697 1.1175724438985257 8.0000000000000000 75
1.4475080941666005  -9.0080483919598819 83.2578585115648480 1.1166362472632150 7.9999999999999982 76
1.4659962970617813  -9.0480143153526740 83.9222800284051971 1.1157110937639043 7.9999999999999982 77
1.4844859807463699  -9.0868799189105900 84.5707036520210806 1.1147963440937281 8.0000000000000000 78
1.5029774861634149  -9.1246618492734104 85.2031956366722909 1.1138914422351569 8.0000000000000000 79
1.5214711376613776  -9.1613770642621244 85.8198413658871999 1.1129959081414709 7.9999999999999982 80
1.5399672424498378  -9.1970428554599000 86.4207449320082333 1.1121093308637486 7.9999999999999982 81
1.5584660901902874  -9.2316768598896726 87.0060285852604807 1.1112313621022389 8.0000000000000000 82
1.5769679527161453  -9.2652970620513617 87.5758320678186806 1.1103617101629155 8.0000000000000018 83
1.5954730838751738  -9.2979217875316564 88.1303118483327665 1.1095001343015525 7.9999999999999991 84
1.6139817194867130  -9.3295696893421436 88.6696402721375989 1.1086464394388387 7.9999999999999964 85
1.6324940774055541  -9.3602597280790683 89.1940046419452699 1.1078004712309744 8.0000000000000000 86
1.6510103576838568  -9.3900111469308740 89.7036062432285917 1.1069621114808683 8.0000000000000000 87
1.6695307428222330  -9.4188434424893916 90.1986593277812148 1.1061312738755893 8.0000000000000000 88
1.6880553981010085  -9.4467763322474667 90.6793900681051213 1.1053079000360586 8.0000000000000000 89
1.7065844719826679  -9.4738297195921497 91.1460354943650231 1.1044919558652664 7.9999999999999982 90
1.7251180965766122  -9.5000236570281764 91.5988424246778408 1.1036834281814984 7.9999999999999991 91
1.7436563881575746  -9.5253783082930870 92.0380663984995238 1.1028823216231938 8.0000000000000000 92
1.7621994477293477  -9.5499139099533572 92.4639706218527806 1.1020886558122158 8.0000000000000018 93
1.7807473616258422  -9.5736507330011786 92.8768249321205559 1.1013024627624353 8.0000000000000000 94
1.7993002021419353  -9.5966090449047456 93.2769047891328569 1.1005237845206695 8.0000000000000000 95
1.8178580281870340  -9.6188090725012838 93.6644902983052958 1.0997526710271806 7.9999999999999991 96
1.8364208859547844  -9.6402709660625128 94.0398652706635971 1.0989891781831349 8.0000000000000000 97
1.8549888096028786  -9.6610147648061808 94.4033163237104276 1.0982333661126171 7.9999999999999991 98
1.8735618219374490  -9.6810603640761244 94.7551320262737704 1.0974852976070819 8.0000000000000000 99
1.8921399350970667  -9.7004274843657470 95.0956020897153849 1.0967450367403713 8.0000000000000018 100
1.9107231512318896  -9.7191356423172515 95.4250166071854267 1.0960126476427843 8.0000000000000000 101
1.9293114631740254  -9.7372041237900628 95.7436653419779304 1.0952881934229972 7.9999999999999991 102
1.9479048550956570  -9.7546519590577407 96.0518370654777414 1.0945717352270414 8.0000000000000000 103
1.9665033031519670  -9.7714979001620428 96.3498189446892468 1.0938633314239272 8.0000000000000000 104
1.9851067761063304  -9.7877604004267198 96.6378959788989960 1.0931630369079373 7.9999999999999991 105
2.0037152359356742  -9.8034575961101655 96.9163504846440276 1.0924709025080408 8.0000000000000000 106
2.0223286384142889  -9.8186072901572299 97.1854616278364460 1.0917869744953403 8.0000000000000000 107
2.0409469336747277  -9.8332269379937713 97.4455050016245110 1.0911112941799177 8.0000000000000018 108
2.0595700667447798  -9.8473336352942571 97.6967522483484743 1.0904438975889073 8.0000000000000036 109
2.0781979780597686  -9.8609441076421067 97.9394707237742352 1.0897848152180911 8.0000000000000000 110
2.0968306039497242  -9.8740747019938535 98.1739232016522010 1.0891340718497760 8.0000000000000000 111
2.1154678771012034  -9.8867413798521717 98.4003676165491186 1.0884916864301502 7.9999999999999991 112
2.1341097269937332  -9.8989597120484234 98.6190568428356755 1.0878576719997934 8.0000000000000036 113
2.1527560803110628  -9.9107448750325204 98.8302385076744372 1.0872320356714134 8.0000000000000018 114
2.1714068613275379  -9.9221116485670322 99.0341548358424291 1.0866147786493419 8.0000000000000000 115
2.1900619922700724  -9.9330744147220429 99.2310425242301619 1.0860058962856975 8.0000000000000000 116
2.2087213936562935  -9.9436471580686394 99.4211326438900187 1.0854053781685398 8.0000000000000018 117
2.2273849846095390  -9.9538434669706746 99.6046505675494700 1.0848132082376962 7.9999999999999982 118
2.2460526831514542  -9.9636765358773012 99.7818159205624085 1.0842293649243198 8.0000000000000000 119
2.2647244064730074  -9.9731591685217662 99.9528425533387690 1.0836538213105491 8.0000000000000000 120
2.2834000711847828  -9.9823037819360287 100.1179385333701362 1.0830865453059908 8.0000000000000036 121
2.3020795935474436  -9.9911224111945032 100.2773061550492031 1.0825274998380239 7.9999999999999982 122
2.3207628896832837  -9.9996267148048830 100.4311419655692248 1.0819766430532269 7.9999999999999982 123
2.3394498757697946  -10.0078279806682087 100.5796368052781986 1.0814339285274728 8.0000000000000000 124
2.3581404682161793  -10.0157371325352216 100.7229758609548043 1.0808993054825131 7.9999999999999982 125
2.3768345838237428  -10.0233647368904908 100.8613387305652651 1.0803727190070773 7.9999999999999982 126
2.3955321399310709  -10.0307210102005229 100.9948994981497918 1.0798541102807393 8.0000000000000000 127
2.4142330545449009  -10.0378158264665700 101.1238268175810475 1.0793434167990006 8.0000000000000036 128
2.4329372464575636  -10.0446587250273112 101.2482840040214001 1.0788405725982164 8.0000000000000000 129
2.4516446353518493  -10.0512589185609897 101.3684291319952138 1.0783455084791713 7.9999999999999982 130
2.4703551418941232  -10.0576253012406056 101.4844151390726950 1.0778581522282442 8.0000000000000000 131
2.4890686878164967  -10.0637664569998577 101.5963899342429215 1.0773784288352581 8.0000000000000000 132
2.5077851959888067  -10.0696906678714093 101.7044965101296299 1.0769062607072439 8.0000000000000000 133
2.5265045904811472  -10.0754059223625276 101.8088730582751680 1.0764415678774431 8.0000000000000000 134
2.5452267966176478  -10.0809199238366531 101.9096530867882251 1.0759842682089995 8.0000000000000036 135
2.5639517410221657  -10.0862400988726542 102.0069655397138035 1.0755342775928751 8.0000000000000000 136
2.5826793516565165  -10.0913736055766599 102.1009349175471215 1.0750915101396188 8.0000000000000000 137
2.6014095578518583  -10.0963273418238373 102.1916813983680328 1.0746558783646838 8.0000000000000018 138
2.6201422903337708  -10.1011079534106258 102.2793209591285120 1.0742272933670705 7.9999999999999982 139
2.6388774812415763  -10.1057218420999355 102.3639654966740693 1.0738056650011336 8.0000000000000000 140
2.6576150641424010  -10.1101751735441816 102.4457229481255922 1.0733909020414223 7.9999999999999964 141
2.6763549740404358  -10.1144738850733447 102.5246974102934416 1.0729829123405212 8.0000000000000000 142
2.6950971473818508  -10.1186236933367617 102.6009892578325662 1.0725816029798416 8.0000000000000000 143
2.7138415220557550  -10.1226301017893938 102.6746952598855955 1.0721868804134065 8.0000000000000036 144
2.7325880373916003  -10.1264984080148253 102.7459086949940996 1.0717986506046644 8.0000000000000036 145
2.7513366341533758  -10.1302337108786435 102.8147194640880997 1.0714168191564200 8.0000000000000018 146
2.7700872545309294  -10.1338409175072250 102.8812142013932629 1.0710412914339833 7.9999999999999991 147
2.7888398421287155  -10.1373247500881440 102.9454763831195692 1.0706719726816623 8.0000000000000000 148
2.8075943419522633  -10.1406897524894646 103.0075864338196396 1.0703087681327423 8.0000000000000000 149
2.8263507003926231  -10.1439402966961794 103.0676218303252654 1.0699515831131110 8.0000000000000000 150
2.8451088652090299  -10.1470805890628295 103.1256572031896894 1.0696003231386995 7.9999999999999982 151
2.8638687855100167  -10.1501146763822980 103.1817644355812718 1.0692548940069155 7.9999999999999973 152
2.8826304117331762  -10.1530464517711323 103.2360127595883341 1.0689152018822607 8.0000000000000000 153
2.9013936956237605  -10.1558796603727188 103.2884688499094068 1.0685811533763210 8.0000000000000000 154
2.9201585902122966  -10.1586179048799234 103.3391969149164566 1.0682526556223313 7.9999999999999964 155
2.9389250497913681  -10.1612646508792785 103.3882587850873307 1.0679296163445158 8.0000000000000000 156
2.9576930298917197  -10.1638232320192650 103.4357139988149470 1.0676119439223917 8.0000000000000000 157
2.9764624872578000  -10.1662968550056299 103.4816198856100726 1.0672995474502602 7.9999999999999982 158
2.9952333798228779  -10.1686886044268263 103.5260316467194031 1.0669923367920697 8.0000000000000000 159
3.0140056666838331  -10.1710014474129142 103.5690024331893824 1.0666902226318478 7.9999999999999982 160
3.0327793080757224  -10.1732382381317485 103.6105834214114338 1.0663931165199183 8.0000000000000000 161
3.0515542653462031  -10.1754017221259403 103.6508238861882489 1.0661009309150691 8.0000000000000000 162
3.0703305009299111  -10.1774945404947097 103.6897712713657143 1.0658135792228882 8.0000000000000000 163
3.0891079783228439  -10.1795192339244949 103.7274712580782818 1.0655309758304343 8.0000000000000000 164
3.1078866620568295  -10.1814782465724800 103.7639678306582880 1.0652530361374342 7.9999999999999982 165
3.1266665176741308  -10.1833739298070860 103.7993033402624405 1.0649796765841790 7.9999999999999964 166
3.1454475117022387  -10.1852085458095765 103.8335185662697597 1.0647108146762938 7.9999999999999982 167
3.1642296116288988  -10.1869842710409895 103.8666527755074753 1.0644463690065440 7.9999999999999982 168
3.1830127858774127  -10.1887031995784731 103.8987437793631017 1.0641862592738482 8.0000000000000018 169
3.2017970037822465  -10.1903673463251607 103.9298279888381842 1.0639304062996378 8.0000000000000000 170
3.2205822355649780  -10.1919786500976812 103.9599404676052927 1.0636787320417365 8.0000000000000000 171
3.2393684523106101  -10.1935389765953097 103.9891149831237556 1.0634311596058810 7.9999999999999982 172
3.2581556259442710  -10.1950501212547504 104.0173840558748282 1.0631876132550417 7.9999999999999982 173
3.2769437292083206  -10.1965138119944481 104.0447790067725720 1.0629480184166629 8.0000000000000000 174
3.2957327356398798  -10.1979317118522665 104.0713300028091055 1.0627123016879638 7.9999999999999982 175
3.3145226195487942  -10.1993054215203252 104.0970661009913556 1.0624803908394151 8.0000000000000000 176
3.3333133559960451  -10.2006364817805597 104.1220152906237360 1.0622522148165110 7.9999999999999991 177
3.3521049207726130  -10.2019263758447600 104.1462045339942364 1.0620277037399541 8.0000000000000000 178
3.3708972903788017  -10.2031765316023790 104.1696598055164316 1.0618067889043532 8.0000000000000018 179
3.3896904420040253  -10.2043883237797104 104.1924061293811405 1.0615894027755433 8.0000000000000036 180
3.4084843535070646  -10.2055630760136093 104.2144676157701042 1.0613754789866241 7.9999999999999991 181
3.4272790033967855  -10.2067020628430321 104.2358674956819158 1.0611649523328139 8.0000000000000000 182
3.4460743708133310  -10.2078065116214827 104.2566281544198148 1.0609577587651942 8.0000000000000036 183
3.4648704355097726  -10.2088776043533720 104.2767711637897605 1.0607538353834463 7.9999999999999973 184
3.4836671778342247  -10.2099164794573749 104.2963173130563348 1.0605531204276593 8.0000000000000000 185
3.5024645787124236  -10.2109242334592523 104.3152866387003570 1.0603555532692623 7.9999999999999982 186
3.5212626196307495  -10.2119019226173950 104.3336984530250788 1.0601610744011887 7.9999999999999991 187
3.5400612826197100  -10.2128505644832117 104.3515713716517581 1.0599696254273097 7.9999999999999982 188
3.5588605502378532  -10.2137711393993023 104.3689233399471448 1.0597811490512190 7.9999999999999991 189
3.5776604055561290  -10.2146645919376891 104.3857716584240904 1.0595955890644271 8.0000000000000000 190
3.5964608321426721  -10.2155318322805080 104.4021330071523437 1.0594128903340148 8.0000000000000000 191
3.6152618140480066  -10.2163737375455455 104.4180234692196194 1.0592329987898135 8.0000000000000000 192
3.6340633357906724  -10.2171911530586996 104.4334585532773758 1.0590558614111496 8.0000000000000000 193
3.6528653823432458  -10.2179848935755544 104.4484532152084597 1.0588814262132149 8.0000000000000000 194
3.6716679391187697  -10.2187557444541639 104.4630218789490073 1.0587096422330950 8.0000000000000018 195
