 # inv_tmp, energy, phys_var, phys_doublon, phys_num, step_i
0.0225447086318073  7.2873875345501951 89.0405578122739456 1.9574340463807032 8.0000000000000000 1
0.0446840047969859  6.4825089386388939 77.3069846807781289 1.9065902654544091 8.0000000000000000 2
0.0664453267732183  5.7001957642808865 66.9730704884109969 1.8574473036810217 8.0000000000000000 3
0.0878571173127963  4.9430629562118789 57.9889077587061195 1.8102777360634872 8.0000000000000000 4
0.1089478927356384  4.2130021159293189 50.2850336382977474 1.7652816549764436 8.0000000000000000 5
0.1297455069174558  3.5112480955937047 43.7783786389799943 1.7225905271894970 8.0000000000000036 6
0.1502766039367880  2.8384589933312387 38.3775360629213580 1.6822739252809682 7.9999999999999964 7
0.1705662417031835  2.1948024401984019 33.9871806094373312 1.6443479973482504 8.0000000000000000 8
0.1906376628793185  1.5800426414441429 30.5115876983080376 1.6087846758010127 8.0000000000000000 9
0.2105121872347250  0.9936240617764056 27.8572910539899254 1.5755208384478632 7.9999999999999964 10
0.2302091998863195  0.4347488681429459 25.9349691174337202 1.5444668695623982 8.0000000000000000 11
0.2497462116967127  -0.0975537404554051 24.6606776961179932 1.5155142863033879 8.0000000000000018 12
0.2691389707314416  -0.6043673621086827 23.9565541204212984 1.4885422743329497 8.0000000000000018 13
0.2884016066713563  -1.0868377717013966 23.7511134085565701 1.4634231075204851 8.0000000000000000 14
0.3075467931496839  -1.5461317374196173 23.9792446411999549 1.4400265121637339 7.9999999999999991 15
0.3265859159564490  -1.9834047842628904 24.5819996957143374 1.4182230838857808 7.9999999999999991 16
0.3455292378185665  -2.3997771495476741 25.5062493297036532 1.3978868851016053 8.0000000000000036 17
0.3643860529605157  -2.7963170036612501 26.7042650524815741 1.3788973521923888 7.9999999999999991 18
0.3831648268458437  -3.1740299150378397 28.1332702963285968 1.3611406321342661 8.0000000000000000 19
0.4018733183802372  -3.5338535069241246 29.7549916048859515 1.3445104540519950 8.0000000000000018 20
0.4205186834210726  -3.8766562719989111 31.5352300535488546 1.3289086257569003 8.0000000000000000 21
0.4391075596932965  -4.2032395678468433 33.4434648421747411 1.3142452309070607 7.9999999999999982 22
0.4576461341711243  -4.5143419015521715 35.4524947570980444 1.3004385899524671 8.0000000000000000 23
0.4761401946695343  -4.8106447163412920 37.5381187221059207 1.2874150377074358 8.0000000000000000 24
0.4945951678247242  -5.0927790093556133 39.6788536558011202 1.2751085620222513 8.0000000000000000 25
0.5130161458596163  -5.3613322303300111 41.8556860365170280 1.2634603412241612 7.9999999999999991 26
0.5314079045641840  -5.6168550301980460 44.0518526749569617 1.2524182123559968 8.0000000000000000 27
0.5497749148083456  -5.8598675414681196 46.2526459663949225 1.2419360974055365 7.9999999999999982 28
0.5681213496855073  -6.0908649747220904 48.4452391291573790 1.2319734104271893 7.9999999999999982 29
0.5864510890942035  -6.3103224050147571 50.6185274599861259 1.2224944645406686 8.0000000000000018 30
0.6047677232370138  -6.5186986966591975 52.7629823106715889 1.2134678941614681 7.9999999999999982 31
0.6230745561786415  -6.7164395742884180 54.8705152083755650 1.2048661044477820 8.0000000000000000 32
0.6413746102815849  -6.9039798925370395 56.9343502291073165 1.1966647568490660 8.0000000000000000 33
0.6596706320449869  -7.0817451872901884 58.9489033411949208 1.1888422968421404 8.0000000000000018 34
0.6779650996208211  -7.2501526098471443 60.9096679366424922 1.1813795274737640 8.0000000000000000 35
0.6962602320770207  -7.4096113535252437 62.8131061536261015 1.1742592302188579 7.9999999999999982 36
0.7145580003204174  -7.5605226822978695 64.6565458663447146 1.1674658329220664 7.9999999999999982 37
0.7328601394809865  -7.7032796650987221 66.4380833907390098 1.1609851232130515 7.9999999999999973 38
0.7511681624880077  -7.8382667093472040 68.1564920427420873 1.1548040047538908 7.9999999999999991 39
0.7694833745321165  -7.9658589747230231 69.8111367081663730 1.1489102929595916 8.0000000000000000 40
0.7878068880980055  -8.0864217346103704 71.4018945582421907 1.1432925463909633 7.9999999999999973 41
0.8061396382640159  -8.2003097390051174 72.9290819886961543 1.1379399298093520 7.9999999999999982 42
0.8244823979908223  -8.3078666198005422 74.3933877870559570 1.1328421048602675 7.9999999999999991 43
0.8428357931564894  -8.4094243677439966 75.7958124536874891 1.1279891444746009 8.0000000000000000 44
0.8612003171349308  -8.5053029002763445 77.1376135251321671 1.1233714673023933 8.0000000000000018 45
0.8795763447557775  -8.5958097310411965 78.4202566792428684 1.1189797887904509 7.9999999999999991 46
0.8979641455233172  -8.6812397450663372 79.6453723438014975 1.1148050858524381 8.0000000000000018 47
0.9163638960087809  -8.7618750783696271 80.8147174853473018 1.1108385724350494 8.0000000000000000 48
0.9347756913627386  -8.8379850968666283 81.9301422231123126 1.1070716836384886 8.0000000000000000 49
0.9531995559222322  -8.9098264667662121 82.9935608935575999 1.1034960663904889 8.0000000000000000 50
0.9716354529103681  -8.9776433069382264 84.0069271827407533 1.1001035749915791 8.0000000000000000 51
0.9900832932446106  -9.0416674128301722 84.9722129449923500 1.0968862701395090 7.9999999999999982 52
1.0085429434842856  -9.1021185412236338 85.8913903353854380 1.0938364202998787 8.0000000000000000 53
1.0270142329583176  -9.1592047452990784 86.7664168985241702 1.0909465045172257 8.0000000000000000 54
1.0454969601214772  -9.2131227499877291 87.5992232756483133 1.0882092159568080 8.0000000000000000 55
1.0639908981919481  -9.2640583583213676 88.3917032145278085 1.0856174656337956 8.0000000000000000 56
1.0824958001253204  -9.3121868803576078 89.1457055908919358 1.0831643859259432 7.9999999999999982 57
1.1010114029806519  -9.3576735771904325 89.8630281752001423 1.0808433335807770 8.0000000000000018 58
1.1195374317334075  -9.4006741135021219 90.5454129036193649 1.0786478920217584 7.9999999999999982 59
1.1380736025882439  -9.4413350130361664 91.1945424365203223 1.0765718728326408 8.0000000000000000 60
1.1566196258420447  -9.4797941122443774 91.8120378111900095 1.0746093163579502 8.0000000000000000 61
1.1751752083445677  -9.5161810081706122 92.3994570174806285 1.0727544914028024 8.0000000000000000 62
1.1937400556007502  -9.5506174973666660 92.9582943455757658 1.0710018940492354 8.0000000000000000 63
1.2123138735552632  -9.5832180032914085 93.4899803738538822 1.0693462456310106 8.0000000000000018 64
1.2308963700964335  -9.6140899902201031 93.9958824819325116 1.0677824899260537 8.0000000000000000 65
1.2494872563132691  -9.6433343621915384 94.4773057894118011 1.0663057896369486 8.0000000000000000 66
1.2680862475360497  -9.6710458459495285 94.9354944346507637 1.0649115222363716 8.0000000000000000 67
1.2866930641878711  -9.6973133571990076 95.3716331202049332 1.0635952752571409 7.9999999999999982 68
1.3053074324716405  -9.7222203498011730 95.7868488624215644 1.0623528411065837 8.0000000000000000 69
1.3239290849143537  -9.7458451477835268 96.1822128922441664 1.0611802114828155 8.0000000000000036 70
1.3425577607880401  -9.7682612602457937 96.5587426626405687 1.0600735714669929 7.9999999999999964 71
1.3611932064245267  -9.7895376794067808 96.9174039253487081 1.0590292933610086 8.0000000000000000 72
1.3798351754391556  -9.8097391621670091 97.2591128459426528 1.0580439303348590 8.0000000000000018 73
1.3984834288767654  -9.8289264956616051 97.5847381316728075 1.0571142099423845 8.0000000000000000 74
1.4171377352916223  -9.8471567473521660 97.8951031512115435 1.0562370275583075 7.9999999999999982 75
1.4357978707715209  -9.8644835002599223 98.1909880294449806 1.0554094397838840 8.0000000000000000 76
1.4544636189149833  -9.8809570739779655 98.4731317038677219 1.0546286578629323 7.9999999999999982 77
1.4731347707693303  -9.8966247321217828 98.7422339320363562 1.0538920411447765 7.9999999999999991 78
1.4918111247363799  -9.9115308768865837 98.9989572419867727 1.0531970906256569 8.0000000000000000 79
1.5104924864516325  -9.9257172313801849 99.2439288195820524 1.0525414425955815 8.0000000000000018 80
1.5291786686420017  -9.9392230103924319 99.4777423284817672 1.0519228624133310 7.9999999999999982 81
1.5478694909664599  -9.9520850802489651 99.7009596598570624 1.0513392384284719 8.0000000000000018 82
1.5665647798433575  -9.9643381083790992 99.9141126101628601 1.0507885760657003 8.0000000000000000 83
1.5852643682676320  -9.9760147032065465 100.1177044862532028 1.0502689920837334 8.0000000000000018 84
1.6039680956206610  -9.9871455449479640 100.3122116379150270 1.0497787090181001 7.9999999999999964 85
1.6226758074751033  -9.9977595078793904 100.4980849185394334 1.0493160498147487 8.0000000000000000 86
1.6413873553967182  -10.0078837746040428 100.6757510751513678 1.0488794326591444 8.0000000000000000 87
1.6601025967448346  -10.0175439428289792 100.8456140694233909 1.0484673660036703 8.0000000000000000 88
1.6788213944728863  -10.0267641251308692 101.0080563315992208 1.0480784437944328 7.9999999999999947 89
1.6975436169301819  -10.0355670421652601 101.1634399494855927 1.0477113408971934 8.0000000000000018 90
1.7162691376658874  -10.0439741097474862 101.3121077948306805 1.0473648087208776 7.9999999999999947 91
1.7349978352360145  -10.0520055202087306 101.4543845895227605 1.0470376710361464 7.9999999999999991 92
1.7537295930140673  -10.0596803184058601 101.5905779141022549 1.0467288199855789 7.9999999999999982 93
1.7724642990058601  -10.0670164727410612 101.7209791611177820 1.0464372122813768 7.9999999999999982 94
1.7912018456689145  -10.0740309415243701 101.8458644358518654 1.0461618655858727 7.9999999999999982 95
1.8099421297367471  -10.0807397349914485 101.9654954069228836 1.0459018550696937 7.9999999999999982 96
1.8286850520482751  -10.0871579732684502 102.0801201092264137 1.0456563101420639 7.9999999999999982 97
1.8474305173825005  -10.0932999405569959 102.1899737016246377 1.0454244113474740 8.0000000000000000 98
1.8661784342985728  -10.0991791357940937 102.2952791817235578 1.0452053874227496 7.9999999999999982 99
1.8849287149812828  -10.1048083200249685 102.3962480600046803 1.0449985125084464 7.9999999999999973 100
1.9036812750919969  -10.1101995607106900 102.4930809954926048 1.0448031035084235 8.0000000000000000 101
1.9224360336250030  -10.1153642731776543 102.5859683950582735 1.0446185175914546 8.0000000000000018 102
1.9411929127692176  -10.1203132594018008 102.6750909783664980 1.0444441498287567 8.0000000000000036 103
1.9599518377751766  -10.1250567443073045 102.7606203103887310 1.0442794309613919 8.0000000000000000 104
1.9787127368272082  -10.1296044097472819 102.8427193033118101 1.0441238252915890 8.0000000000000000 105
1.9974755409206797  -10.1339654263223764 102.9215426895859196 1.0439768286921607 8.0000000000000000 106
2.0162401837441886  -10.1381484831825617 102.9972374677669507 1.0438379667283293 8.0000000000000018 107
2.0350066015665713  -10.1421618159472953 103.0699433227243560 1.0437067928864336 8.0000000000000000 108
2.0537747331285763  -10.1460132328700325 103.1397930217020473 1.0435828869041575 8.0000000000000000 109
2.0725445195390702  -10.1497101393641316 103.2069127876404195 1.0434658531970991 8.0000000000000000 110
2.0913159041756129  -10.1532595609994178 103.2714226510909725 1.0433553193766851 8.0000000000000000 111
2.1100888325892622  -10.1566681650708208 103.3334367819796853 1.0432509348546233 7.9999999999999982 112
2.1288632524134510  -10.1599422808337678 103.3930638024069992 1.0431523695292775 8.0000000000000018 113
2.1476391132767834  -10.1630879184941598 103.4504070816008294 1.0430593125495382 8.0000000000000000 114
2.1664163667196084  -10.1661107870351053 103.5055650140795080 1.0429714711519618 7.9999999999999964 115
2.1851949661142127  -10.1690163109565574 103.5586312820155257 1.0428885695671237 8.0000000000000018 116
2.2039748665885015  -10.1718096459988061 103.6096951027354294 1.0428103479913287 8.0000000000000000 117
2.2227560249530094  -10.1744956939163789 103.6588414622375467 1.0427365616200128 8.0000000000000036 118
2.2415383996311178  -10.1770791163635046 103.7061513355510556 1.0426669797393133 7.9999999999999991 119
2.2603219505923318  -10.1795643479489506 103.7517018947197016 1.0426013848725049 8.0000000000000000 120
2.2791066392885018  -10.1819556085134657 103.7955667051375883 1.0425395719781194 8.0000000000000000 121
2.2978924285928417  -10.1842569146798887 103.8378159109270484 1.0424813476967676 8.0000000000000036 122
2.3166792827416436  -10.1864720907222654 103.8785164100047496 1.0424265296438109 8.0000000000000018 123
2.3354671672785567  -10.1886047787973233 103.9177320194425533 1.0423749457451938 8.0000000000000000 124
2.3542560490013220  -10.1906584485788088 103.9555236316941773 1.0423264336138898 7.9999999999999991 125
2.3730458959108520  -10.1926364063322268 103.9919493622240054 1.0422808399645458 8.0000000000000000 126
2.3918366771625541  -10.1945418034651425 104.0270646890407136 1.0422380200640518 8.0000000000000018 127
2.4106283630197902  -10.1963776445860930 104.0609225846093011 1.0421978372158827 8.0000000000000018 128
2.4294209248093823  -10.1981467951023212 104.0935736405858734 1.0421601622761796 7.9999999999999991 129
2.4482143348790664  -10.1998519883853049 104.1250661857916668 1.0421248731996529 8.0000000000000000 130
2.4670085665568098  -10.2014958325304708 104.1554463978193326 1.0420918546135005 8.0000000000000018 131
2.4858035941119052  -10.2030808167362022 104.1847584086384302 1.0420609974176362 7.9999999999999982 132
2.5045993927177577  -10.2046093173254278 104.2130444045475031 1.0420321984096277 7.9999999999999973 133
2.5233959384162925  -10.2060836034314111 104.2403447207964859 1.0420053599328216 8.0000000000000000 134
2.5421932080839031  -10.2075058423682332 104.2666979311848792 1.0419803895462409 7.9999999999999982 135
2.5609911793988771  -10.2088781047049793 104.2921409329239282 1.0419571997149151 7.9999999999999982 136
2.5797898308102210  -10.2102023690613120 104.3167090270299298 1.0419357075193740 8.0000000000000000 137
2.5985891415078286  -10.2114805266412034 104.3404359945046735 1.0419158343831314 8.0000000000000000 138
2.6173890913939286  -10.2127143855203748 104.3633541685396580 1.0418975058170357 8.0000000000000000 139
2.6361896610557509  -10.2139056747019357 104.3854945029679016 1.0418806511794447 8.0000000000000000 140
2.6549908317393589  -10.2150560479539863 104.4068866371753472 1.0418652034512395 8.0000000000000000 141
2.6737925853245899  -10.2161670874419475 104.4275589576678982 1.0418510990247516 8.0000000000000000 142
2.6925949043010555  -10.2172403071675468 104.4475386564820099 1.0418382775057369 7.9999999999999991 143
2.7113977717451574  -10.2182771562257191 104.4668517866127502 1.0418266815275827 7.9999999999999982 144
2.7302011712980647  -10.2192790218899940 104.4855233146253966 1.0418162565769800 8.0000000000000000 145
2.7490050871446106  -10.2202472325361100 104.5035771706041601 1.0418069508303414 8.0000000000000000 146
2.7678095039930737  -10.2211830604132974 104.5210362955858017 1.0417987150002987 7.9999999999999982 147
2.7866144070557946  -10.2220877242717130 104.5379226866138254 1.0417915021916409 7.9999999999999964 148
2.8054197820305946  -10.2229623918543258 104.5542574395442017 1.0417852677660979 8.0000000000000000 149
2.8242256150829608  -10.2238081822608198 104.5700607897231009 1.0417799692154242 8.0000000000000036 150
2.8430318928289595  -10.2246261681907669 104.5853521506528665 1.0417755660422490 8.0000000000000000 151
2.8618386023188482  -10.2254173780727466 104.6001501507529952 1.0417720196482148 7.9999999999999982 152
2.8806457310213558  -10.2261827980857873 104.6144726683193085 1.0417692932289382 8.0000000000000000 153
2.8994532668085959  -10.2269233740790852 104.6283368647761733 1.0417673516753621 8.0000000000000018 154
2.9182611979415918  -10.2276400133955967 104.6417592163133889 1.0417661614811109 8.0000000000000036 155
2.9370695130563798  -10.2283335866047942 104.6547555439927066 1.0417656906554507 8.0000000000000000 156
2.9558782011506688  -10.2290049291495144 104.6673410424042885 1.0417659086415207 7.9999999999999982 157
2.9746872515710332  -10.2296548429115344 104.6795303069497578 1.0417667862394895 8.0000000000000000 158
2.9934966540006087  -10.2302840977003360 104.6913373598223984 1.0417682955343306 8.0000000000000000 159
3.0123063984472771  -10.2308934326691237 104.7027756747538376 1.0417704098279368 7.9999999999999982 160
3.0311164752323130  -10.2314835576620524 104.7138582005895842 1.0417731035752849 7.9999999999999991 161
3.0499268749794770  -10.2320551544961944 104.7245973837542863 1.0417763523244030 7.9999999999999982 162
3.0687375886045287  -10.2326088781819120 104.7350051896639229 1.0417801326599072 7.9999999999999991 163
3.0875486073051510  -10.2331453580846663 104.7450931231386164 1.0417844221498740 8.0000000000000000 164
3.1063599225512606  -10.2336651990314937 104.7548722478662739 1.0417891992958441 7.9999999999999991 165
3.1251715260756887  -10.2341689823649347 104.7643532049664685 1.0417944434857644 7.9999999999999982 166
3.1439834098652222  -10.2346572669472380 104.7735462306982583 1.0418001349496764 7.9999999999999964 167
3.1627955661519840  -10.2351305901173113 104.7824611733565803 1.0418062547179865 7.9999999999999973 168
3.1816079874051351  -10.2355894686029565 104.7911075093962410 1.0418127845821548 7.9999999999999973 169
3.2004206663228989  -10.2360343993905722 104.7994943588236936 1.0418197070576503 8.0000000000000036 170
3.2192335958248774  -10.2364658605545849 104.8076304998904789 1.0418270053490293 7.9999999999999982 171
3.2380467690446562  -10.2368843120486339 104.8155243831265295 1.0418346633170177 8.0000000000000000 172
3.2568601793226852  -10.2372901964603500 104.8231841447407362 1.0418426654474495 8.0000000000000000 173
3.2756738201994242  -10.2376839397317081 104.8306176194247996 1.0418509968219734 7.9999999999999964 174
3.2944876854087393  -10.2380659518465613 104.8378323525861475 1.0418596430903966 8.0000000000000000 175
3.3133017688715420  -10.2384366274870295 104.8448356120383806 1.0418685904445755 8.0000000000000000 176
3.3321160646896608  -10.2387963466602958 104.8516343991765467 1.0418778255937580 7.9999999999999973 177
3.3509305671399350  -10.2391454752972884 104.8582354596605626 1.0418873357412846 7.9999999999999982 178
3.3697452706685262  -10.2394843658245236 104.8646452936310709 1.0418971085625655 8.0000000000000000 179
3.3885601698854275  -10.2398133577106147 104.8708701654802411 1.0419071321842586 8.0000000000000000 180
3.4073752595591782  -10.2401327779884568 104.8769161131977938 1.0419173951645746 8.0000000000000036 181
3.4261905346117612  -10.2404429417544591 104.8827889573136218 1.0419278864746337 8.0000000000000000 182
3.4450059901136827  -10.2407441526457976 104.8884943094545577 1.0419385954808265 7.9999999999999991 183
3.4638216212792314  -10.2410367032968423 104.8940375805347998 1.0419495119280966 8.0000000000000000 184
3.4826374234618980  -10.2413208757756280 104.8994239885956148 1.0419606259241081 7.9999999999999973 185
3.5014533921499598  -10.2415969420015198 104.9046585663125200 1.0419719279242388 8.0000000000000036 186
3.5202695229622187  -10.2418651641446932 104.9097461681829202 1.0419834087173392 7.9999999999999982 187
3.5390858116438877  -10.2421257950085884 104.9146914774117647 1.0419950594122356 8.0000000000000000 188
3.5579022540626197  -10.2423790783958708 104.9194990125062930 1.0420068714249047 8.0000000000000000 189
3.5767188462046744  -10.2426252494588219 104.9241731335954881 1.0420188364663034 8.0000000000000000 190
3.5955355841712158  -10.2428645350348795 104.9287180484850381 1.0420309465308022 8.0000000000000000 191
3.6143524641747380  -10.2430971539679163 104.9331378184612333 1.0420431938851911 8.0000000000000018 192
3.6331694825356098  -10.2433233174160563 104.9374363638540899 1.0420555710582249 8.0000000000000000 193
3.6519866356787447  -10.2435432291464963 104.9416174693709536 1.0420680708306749 8.0000000000000018 194
