 # inv_tmp, energy, phys_var, phys_doublon, phys_num, step_i
0.020686  7.317469 89.556638 1.955136 8.000000 1
0.041058  6.576665 78.705279 1.909780 8.000000 2
0.061133  5.853547 69.037279 1.865541 8.000000 3
0.080931  5.150050 60.521036 1.822580 8.000000 4
0.100470  4.467569 53.108711 1.781024 8.000000 5
0.119769  3.807036 46.740585 1.740967 8.000000 6
0.138846  3.169008 41.349008 1.702473 8.000000 7
0.157719  2.553745 36.861766 1.665586 8.000000 8
0.176404  1.961283 33.204808 1.630330 8.000000 9
0.194916  1.391492 30.304345 1.596711 8.000000 10
0.213269  0.844119 28.088402 1.564725 8.000000 11
0.231479  0.318823 26.487886 1.534357 8.000000 12
0.249557  -0.184802 25.437300 1.505580 8.000000 13
0.267515  -0.667215 24.875162 1.478363 8.000000 14
0.285364  -1.128915 24.744224 1.452664 8.000000 15
0.303115  -1.570434 24.991526 1.428439 8.000000 16
0.320778  -1.992337 25.568359 1.405636 8.000000 17
0.338361  -2.395212 26.430151 1.384200 8.000000 18
0.355873  -2.779672 27.536295 1.364072 8.000000 19
0.373321  -3.146344 28.849958 1.345193 8.000000 20
0.390713  -3.495868 30.337860 1.327500 8.000000 21
0.408054  -3.828894 31.970047 1.310929 8.000000 22
0.425351  -4.146070 33.719659 1.295420 8.000000 23
0.442608  -4.448043 35.562698 1.280908 8.000000 24
0.459832  -4.735452 37.477799 1.267335 8.000000 25
0.477025  -5.008924 39.446014 1.254641 8.000000 26
0.494193  -5.269072 41.450600 1.242770 8.000000 27
0.511339  -5.516490 43.476823 1.231669 8.000000 28
0.528465  -5.751754 45.511775 1.221286 8.000000 29
0.545576  -5.975416 47.544199 1.211573 8.000000 30
0.562675  -6.188009 49.564337 1.202484 8.000000 31
0.579762  -6.390043 51.563777 1.193978 8.000000 32
0.596842  -6.582007 53.535327 1.186016 8.000000 33
0.613916  -6.764368 55.472888 1.178559 8.000000 34
0.630986  -6.937572 57.371348 1.171574 8.000000 35
0.648053  -7.102048 59.226476 1.165029 8.000000 36
0.665119  -7.258204 61.034834 1.158895 8.000000 37
0.682187  -7.406430 62.793689 1.153144 8.000000 38
0.699256  -7.547100 64.500939 1.147751 8.000000 39
0.716329  -7.680574 66.155040 1.142693 8.000000 40
0.733405  -7.807193 67.754944 1.137947 8.000000 41
0.750487  -7.927288 69.300039 1.133494 8.000000 42
0.767575  -8.041173 70.790093 1.129315 8.000000 43
0.784669  -8.149150 72.225211 1.125392 8.000000 44
0.801771  -8.251510 73.605781 1.121710 8.000000 45
0.818880  -8.348531 74.932443 1.118252 8.000000 46
0.835998  -8.440478 76.206043 1.115005 8.000000 47
0.853124  -8.527606 77.427606 1.111956 8.000000 48
0.870259  -8.610162 78.598303 1.109092 8.000000 49
0.887403  -8.688377 79.719423 1.106402 8.000000 50
0.904556  -8.762477 80.792349 1.103875 8.000000 51
0.921719  -8.832674 81.818538 1.101501 8.000000 52
0.938891  -8.899173 82.799500 1.099270 8.000000 53
0.956072  -8.962170 83.736782 1.097173 8.000000 54
0.973263  -9.021849 84.631953 1.095202 8.000000 55
0.990463  -9.078387 85.486589 1.093350 8.000000 56
1.007673  -9.131954 86.302265 1.091609 8.000000 57
1.024892  -9.182709 87.080547 1.089971 8.000000 58
1.042119  -9.230805 87.822976 1.088431 8.000000 59
1.059356  -9.276387 88.531071 1.086982 8.000000 60
1.076601  -9.319591 89.206317 1.085619 8.000000 61
1.093855  -9.360548 89.850164 1.084336 8.000000 62
1.111117  -9.399380 90.464019 1.083128 8.000000 63
1.128388  -9.436206 91.049250 1.081991 8.000000 64
1.145666  -9.471136 91.607178 1.080920 8.000000 65
1.162952  -9.504273 92.139078 1.079910 8.000000 66
1.180245  -9.535717 92.646179 1.078959 8.000000 67
1.197546  -9.565562 93.129661 1.078062 8.000000 68
1.214854  -9.593895 93.590657 1.077216 8.000000 69
1.232169  -9.620800 94.030255 1.076417 8.000000 70
1.249490  -9.646356 94.449492 1.075663 8.000000 71
1.266818  -9.670637 94.849364 1.074950 8.000000 72
1.284152  -9.693712 95.230818 1.074277 8.000000 73
1.301492  -9.715649 95.594762 1.073640 8.000000 74
1.318838  -9.736509 95.942057 1.073037 8.000000 75
1.336189  -9.756351 96.273526 1.072467 8.000000 76
1.353546  -9.775230 96.589951 1.071926 8.000000 77
1.370908  -9.793200 96.892076 1.071414 8.000000 78
1.388275  -9.810308 97.180611 1.070927 8.000000 79
1.405647  -9.826602 97.456226 1.070466 8.000000 80
1.423023  -9.842125 97.719562 1.070027 8.000000 81
1.440404  -9.856918 97.971224 1.069610 8.000000 82
1.457790  -9.871020 98.211789 1.069213 8.000000 83
1.475179  -9.884469 98.441803 1.068835 8.000000 84
1.492573  -9.897297 98.661785 1.068475 8.000000 85
1.509970  -9.909539 98.872227 1.068131 8.000000 86
1.527371  -9.921225 99.073597 1.067803 8.000000 87
1.544776  -9.932383 99.266335 1.067489 8.000000 88
1.562184  -9.943042 99.450863 1.067188 8.000000 89
1.579595  -9.953226 99.627578 1.066901 8.000000 90
1.597010  -9.962960 99.796858 1.066625 8.000000 91
1.614428  -9.972268 99.959060 1.066360 8.000000 92
1.631848  -9.981170 100.114525 1.066106 8.000000 93
1.649272  -9.989688 100.263574 1.065862 8.000000 94
1.666698  -9.997840 100.406512 1.065627 8.000000 95
1.684127  -10.005645 100.543629 1.065400 8.000000 96
1.701559  -10.013120 100.675200 1.065181 8.000000 97
1.718992  -10.020282 100.801485 1.064970 8.000000 98
1.736429  -10.027146 100.922731 1.064766 8.000000 99
1.753867  -10.033725 101.039173 1.064569 8.000000 100
1.771308  -10.040035 101.151034 1.064378 8.000000 101
1.788751  -10.046089 101.258524 1.064192 8.000000 102
1.806195  -10.051897 101.361845 1.064012 8.000000 103
1.823642  -10.057473 101.461186 1.063838 8.000000 104
1.841091  -10.062827 101.556729 1.063668 8.000000 105
1.858541  -10.067970 101.648645 1.063502 8.000000 106
1.875993  -10.072911 101.737097 1.063341 8.000000 107
1.893447  -10.077661 101.822241 1.063184 8.000000 108
1.910902  -10.082227 101.904224 1.063031 8.000000 109
1.928359  -10.086618 101.983185 1.062881 8.000000 110
1.945818  -10.090843 102.059258 1.062734 8.000000 111
1.963278  -10.094909 102.132569 1.062591 8.000000 112
1.980739  -10.098822 102.203240 1.062450 8.000000 113
1.998202  -10.102591 102.271384 1.062313 8.000000 114
2.015666  -10.106221 102.337110 1.062177 8.000000 115
2.033131  -10.109719 102.400522 1.062045 8.000000 116
2.050597  -10.113090 102.461720 1.061915 8.000000 117
2.068065  -10.116340 102.520796 1.061787 8.000000 118
2.085534  -10.119475 102.577841 1.061661 8.000000 119
2.103003  -10.122498 102.632939 1.061537 8.000000 120
2.120474  -10.125416 102.686173 1.061415 8.000000 121
2.137946  -10.128232 102.737619 1.061294 8.000000 122
2.155419  -10.130952 102.787351 1.061176 8.000000 123
2.172893  -10.133578 102.835441 1.061059 8.000000 124
2.190367  -10.136115 102.881954 1.060943 8.000000 125
2.207843  -10.138567 102.926956 1.060829 8.000000 126
2.225319  -10.140937 102.970506 1.060716 8.000000 127
2.242796  -10.143229 103.012665 1.060605 8.000000 128
2.260274  -10.145446 103.053486 1.060495 8.000000 129
2.277753  -10.147591 103.093023 1.060386 8.000000 130
2.295232  -10.149666 103.131328 1.060278 8.000000 131
2.312712  -10.151676 103.168449 1.060172 8.000000 132
2.330193  -10.153621 103.204431 1.060066 8.000000 133
2.347675  -10.155505 103.239320 1.059961 8.000000 134
2.365157  -10.157331 103.273157 1.059858 8.000000 135
2.382640  -10.159101 103.305983 1.059755 8.000000 136
2.400123  -10.160816 103.337836 1.059654 8.000000 137
2.417607  -10.162479 103.368755 1.059553 8.000000 138
2.435091  -10.164092 103.398774 1.059453 8.000000 139
2.452576  -10.165657 103.427926 1.059353 8.000000 140
2.470062  -10.167176 103.456245 1.059255 8.000000 141
2.487548  -10.168650 103.483762 1.059157 8.000000 142
2.505035  -10.170082 103.510505 1.059060 8.000000 143
2.522522  -10.171472 103.536505 1.058964 8.000000 144
2.540009  -10.172823 103.561787 1.058869 8.000000 145
2.557497  -10.174135 103.586378 1.058774 8.000000 146
2.574985  -10.175411 103.610303 1.058680 8.000000 147
2.592474  -10.176652 103.633587 1.058587 8.000000 148
2.609963  -10.177858 103.656251 1.058494 8.000000 149
2.627453  -10.179032 103.678318 1.058402 8.000000 150
2.644943  -10.180173 103.699810 1.058310 8.000000 151
2.662433  -10.181285 103.720746 1.058219 8.000000 152
2.679923  -10.182367 103.741146 1.058129 8.000000 153
2.697414  -10.183421 103.761029 1.058039 8.000000 154
2.714906  -10.184447 103.780412 1.057950 8.000000 155
2.732397  -10.185447 103.799313 1.057861 8.000000 156
2.749889  -10.186421 103.817748 1.057773 8.000000 157
2.767381  -10.187371 103.835734 1.057686 8.000000 158
2.784874  -10.188297 103.853285 1.057599 8.000000 159
2.802367  -10.189200 103.870416 1.057512 8.000000 160
2.819860  -10.190081 103.887141 1.057426 8.000000 161
2.837353  -10.190941 103.903473 1.057341 8.000000 162
2.854846  -10.191780 103.919427 1.057256 8.000000 163
2.872340  -10.192599 103.935013 1.057172 8.000000 164
2.889834  -10.193399 103.950245 1.057088 8.000000 165
2.907329  -10.194180 103.965133 1.057005 8.000000 166
2.924823  -10.194943 103.979688 1.056922 8.000000 167
2.942318  -10.195689 103.993923 1.056840 8.000000 168
2.959813  -10.196418 104.007846 1.056758 8.000000 169
2.977308  -10.197130 104.021467 1.056676 8.000000 170
2.994803  -10.197827 104.034797 1.056596 8.000000 171
3.012299  -10.198508 104.047844 1.056515 8.000000 172
3.029794  -10.199175 104.060617 1.056435 8.000000 173
3.047290  -10.199827 104.073125 1.056356 8.000000 174
3.064786  -10.200466 104.085375 1.056277 8.000000 175
3.082282  -10.201091 104.097376 1.056198 8.000000 176
3.099779  -10.201703 104.109136 1.056120 8.000000 177
3.117275  -10.202302 104.120661 1.056043 8.000000 178
3.134772  -10.202889 104.131958 1.055966 8.000000 179
3.152269  -10.203464 104.143036 1.055889 8.000000 180
3.169766  -10.204028 104.153899 1.055813 8.000000 181
3.187263  -10.204581 104.164554 1.055737 8.000000 182
3.204760  -10.205122 104.175008 1.055662 8.000000 183
3.222257  -10.205654 104.185266 1.055587 8.000000 184
3.239755  -10.206175 104.195334 1.055513 8.000000 185
3.257252  -10.206686 104.205217 1.055439 8.000000 186
3.274750  -10.207188 104.214922 1.055366 8.000000 187
3.292248  -10.207680 104.224451 1.055292 8.000000 188
3.309746  -10.208163 104.233812 1.055220 8.000000 189
3.327244  -10.208638 104.243008 1.055148 8.000000 190
3.344742  -10.209104 104.252044 1.055076 8.000000 191
3.362240  -10.209561 104.260924 1.055005 8.000000 192
3.379739  -10.210011 104.269654 1.054934 8.000000 193
3.397237  -10.210452 104.278235 1.054864 8.000000 194
3.414736  -10.210887 104.286674 1.054794 8.000000 195
3.432234  -10.211313 104.294974 1.054724 8.000000 196
3.449733  -10.211733 104.303137 1.054655 8.000000 197
3.467232  -10.212145 104.311169 1.054586 8.000000 198
3.484731  -10.212551 104.319072 1.054518 8.000000 199
3.502230  -10.212950 104.326850 1.054450 8.000000 200
3.519729  -10.213342 104.334506 1.054383 8.000000 201
3.537228  -10.213729 104.342043 1.054316 8.000000 202
3.554727  -10.214109 104.349465 1.054249 8.000000 203
3.572226  -10.214483 104.356773 1.054183 8.000000 204
3.589726  -10.214851 104.363972 1.054117 8.000000 205
3.607225  -10.215214 104.371063 1.054052 8.000000 206
3.624725  -10.215571 104.378050 1.053987 8.000000 207
3.642224  -10.215923 104.384934 1.053922 8.000000 208
3.659724  -10.216269 104.391719 1.053858 8.000000 209
3.677223  -10.216610 104.398407 1.053794 8.000000 210
3.694723  -10.216947 104.405000 1.053731 8.000000 211
3.712223  -10.217278 104.411501 1.053668 8.000000 212
3.729723  -10.217605 104.417911 1.053605 8.000000 213
3.747223  -10.217927 104.424233 1.053543 8.000000 214
3.764723  -10.218245 104.430469 1.053481 8.000000 215
3.782223  -10.218558 104.436620 1.053420 8.000000 216
3.799723  -10.218867 104.442690 1.053359 8.000000 217
3.817223  -10.219171 104.448678 1.053298 8.000000 218
3.834723  -10.219472 104.454589 1.053238 8.000000 219
3.852223  -10.219768 104.460422 1.053178 8.000000 220
3.869723  -10.220061 104.466180 1.053119 8.000000 221
3.887223  -10.220349 104.471865 1.053060 8.000000 222
3.904724  -10.220634 104.477478 1.053001 8.000000 223
3.922224  -10.220915 104.483020 1.052943 8.000000 224
3.939724  -10.221193 104.488494 1.052885 8.000000 225
3.957225  -10.221467 104.493900 1.052827 8.000000 226
3.974725  -10.221738 104.499240 1.052770 8.000000 227
3.992225  -10.222005 104.504516 1.052713 8.000000 228
4.009726  -10.222269 104.509728 1.052657 8.000000 229
4.027227  -10.222530 104.514879 1.052601 8.000000 230
4.044727  -10.222788 104.519968 1.052545 8.000000 231
4.062228  -10.223042 104.524998 1.052490 8.000000 232
4.079728  -10.223294 104.529970 1.052435 8.000000 233
4.097229  -10.223542 104.534885 1.052380 8.000000 234
4.114730  -10.223788 104.539743 1.052326 8.000000 235
4.132230  -10.224031 104.544547 1.052272 8.000000 236
4.149731  -10.224271 104.549297 1.052218 8.000000 237
4.167232  -10.224508 104.553994 1.052165 8.000000 238
4.184733  -10.224742 104.558639 1.052112 8.000000 239
4.202233  -10.224974 104.563233 1.052059 8.000000 240
4.219734  -10.225204 104.567777 1.052007 8.000000 241
4.237235  -10.225430 104.572271 1.051955 8.000000 242
4.254736  -10.225655 104.576718 1.051904 8.000000 243
4.272237  -10.225877 104.581118 1.051853 8.000000 244
4.289738  -10.226096 104.585471 1.051802 8.000000 245
4.307239  -10.226313 104.589778 1.051751 8.000000 246
4.324740  -10.226528 104.594040 1.051701 8.000000 247
4.342241  -10.226740 104.598259 1.051651 8.000000 248
4.359742  -10.226951 104.602434 1.051602 8.000000 249
4.377243  -10.227159 104.606566 1.051552 8.000000 250
4.394744  -10.227365 104.610657 1.051503 8.000000 251
4.412245  -10.227568 104.614706 1.051455 8.000000 252
4.429746  -10.227770 104.618715 1.051407 8.000000 253
4.447247  -10.227970 104.622684 1.051359 8.000000 254
4.464748  -10.228167 104.626614 1.051311 8.000000 255
4.482249  -10.228363 104.630505 1.051264 8.000000 256
4.499750  -10.228557 104.634359 1.051217 8.000000 257
4.517252  -10.228749 104.638175 1.051170 8.000000 258
4.534753  -10.228939 104.641954 1.051124 8.000000 259
4.552254  -10.229127 104.645697 1.051078 8.000000 260
4.569755  -10.229313 104.649405 1.051032 8.000000 261
4.587256  -10.229497 104.653077 1.050987 8.000000 262
4.604758  -10.229680 104.656714 1.050941 8.000000 263
4.622259  -10.229861 104.660318 1.050897 8.000000 264
4.639760  -10.230040 104.663888 1.050852 8.000000 265
4.657262  -10.230218 104.667425 1.050808 8.000000 266
4.674763  -10.230394 104.670929 1.050764 8.000000 267
4.692264  -10.230568 104.674402 1.050720 8.000000 268
4.709765  -10.230741 104.677842 1.050677 8.000000 269
4.727267  -10.230912 104.681252 1.050634 8.000000 270
4.744768  -10.231081 104.684630 1.050591 8.000000 271
4.762270  -10.231249 104.687978 1.050549 8.000000 272
4.779771  -10.231415 104.691296 1.050506 8.000000 273
4.797272  -10.231580 104.694585 1.050464 8.000000 274
4.814774  -10.231744 104.697844 1.050423 8.000000 275
4.832275  -10.231905 104.701075 1.050381 8.000000 276
4.849777  -10.232066 104.704277 1.050340 8.000000 277
4.867278  -10.232225 104.707452 1.050299 8.000000 278
4.884779  -10.232383 104.710598 1.050259 8.000000 279
4.902281  -10.232539 104.713718 1.050219 8.000000 280
4.919782  -10.232694 104.716810 1.050179 8.000000 281
4.937284  -10.232847 104.719876 1.050139 8.000000 282
4.954785  -10.232999 104.722915 1.050099 8.000000 283
4.972287  -10.233150 104.725929 1.050060 8.000000 284
4.989788  -10.233300 104.728916 1.050021 8.000000 285
5.007290  -10.233448 104.731879 1.049983 8.000000 286
5.024792  -10.233595 104.734816 1.049944 8.000000 287
5.042293  -10.233741 104.737729 1.049906 8.000000 288
5.059795  -10.233886 104.740618 1.049868 8.000000 289
5.077296  -10.234029 104.743482 1.049830 8.000000 290
5.094798  -10.234171 104.746322 1.049793 8.000000 291
5.112299  -10.234312 104.749139 1.049756 8.000000 292
5.129801  -10.234452 104.751932 1.049719 8.000000 293
5.147303  -10.234590 104.754703 1.049682 8.000000 294
5.164804  -10.234728 104.757450 1.049646 8.000000 295
5.182306  -10.234864 104.760175 1.049610 8.000000 296
5.199807  -10.234999 104.762878 1.049574 8.000000 297
5.217309  -10.235133 104.765559 1.049538 8.000000 298
5.234811  -10.235266 104.768218 1.049503 8.000000 299
5.252312  -10.235398 104.770855 1.049468 8.000000 300
5.269814  -10.235529 104.773471 1.049433 8.000000 301
5.287316  -10.235658 104.776067 1.049398 8.000000 302
5.304817  -10.235787 104.778641 1.049364 8.000000 303
5.322319  -10.235915 104.781194 1.049329 8.000000 304
5.339821  -10.236041 104.783727 1.049295 8.000000 305
5.357323  -10.236167 104.786240 1.049262 8.000000 306
5.374824  -10.236291 104.788733 1.049228 8.000000 307
5.392326  -10.236415 104.791206 1.049195 8.000000 308
5.409828  -10.236538 104.793660 1.049162 8.000000 309
5.427330  -10.236659 104.796094 1.049129 8.000000 310
5.444831  -10.236780 104.798508 1.049096 8.000000 311
5.462333  -10.236899 104.800904 1.049064 8.000000 312
5.479835  -10.237018 104.803281 1.049032 8.000000 313
5.497337  -10.237136 104.805640 1.049000 8.000000 314
5.514839  -10.237253 104.807980 1.048968 8.000000 315
5.532340  -10.237369 104.810301 1.048936 8.000000 316
5.549842  -10.237484 104.812605 1.048905 8.000000 317
5.567344  -10.237598 104.814891 1.048874 8.000000 318
5.584846  -10.237711 104.817159 1.048843 8.000000 319
5.602348  -10.237823 104.819409 1.048812 8.000000 320
5.619849  -10.237935 104.821642 1.048782 8.000000 321
5.637351  -10.238046 104.823858 1.048751 8.000000 322
5.654853  -10.238155 104.826056 1.048721 8.000000 323
5.672355  -10.238264 104.828238 1.048691 8.000000 324
5.689857  -10.238372 104.830403 1.048662 8.000000 325
5.707359  -10.238479 104.832551 1.048632 8.000000 326
5.724861  -10.238586 104.834683 1.048603 8.000000 327
5.742363  -10.238691 104.836798 1.048574 8.000000 328
5.759865  -10.238796 104.838898 1.048545 8.000000 329
5.777367  -10.238900 104.840981 1.048516 8.000000 330
5.794868  -10.239003 104.843049 1.048488 8.000000 331
5.812370  -10.239106 104.845100 1.048460 8.000000 332
5.829872  -10.239207 104.847137 1.048432 8.000000 333
5.847374  -10.239308 104.849157 1.048404 8.000000 334
5.864876  -10.239408 104.851163 1.048376 8.000000 335
5.882378  -10.239507 104.853153 1.048349 8.000000 336
5.899880  -10.239606 104.855128 1.048321 8.000000 337
5.917382  -10.239704 104.857088 1.048294 8.000000 338
5.934884  -10.239801 104.859034 1.048267 8.000000 339
5.952386  -10.239897 104.860965 1.048240 8.000000 340
5.969888  -10.239993 104.862881 1.048214 8.000000 341
5.987390  -10.240088 104.864783 1.048187 8.000000 342
6.004892  -10.240182 104.866671 1.048161 8.000000 343
6.022394  -10.240275 104.868544 1.048135 8.000000 344
6.039897  -10.240368 104.870404 1.048109 8.000000 345
6.057399  -10.240460 104.872249 1.048084 8.000000 346
6.074901  -10.240551 104.874081 1.048058 8.000000 347
6.092403  -10.240642 104.875899 1.048033 8.000000 348
6.109905  -10.240732 104.877703 1.048008 8.000000 349
6.127407  -10.240821 104.879494 1.047983 8.000000 350
6.144909  -10.240910 104.881272 1.047958 8.000000 351
6.162411  -10.240998 104.883036 1.047933 8.000000 352
6.179913  -10.241085 104.884787 1.047909 8.000000 353
6.197415  -10.241172 104.886526 1.047884 8.000000 354
6.214918  -10.241258 104.888251 1.047860 8.000000 355
6.232420  -10.241343 104.889964 1.047836 8.000000 356
6.249922  -10.241428 104.891663 1.047813 8.000000 357
6.267424  -10.241512 104.893351 1.047789 8.000000 358
6.284926  -10.241596 104.895025 1.047765 8.000000 359
6.302428  -10.241679 104.896688 1.047742 8.000000 360
6.319931  -10.241761 104.898338 1.047719 8.000000 361
6.337433  -10.241842 104.899975 1.047696 8.000000 362
6.354935  -10.241924 104.901601 1.047673 8.000000 363
6.372437  -10.242004 104.903215 1.047650 8.000000 364
6.389939  -10.242084 104.904817 1.047628 8.000000 365
6.407442  -10.242163 104.906407 1.047605 8.000000 366
6.424944  -10.242242 104.907985 1.047583 8.000000 367
6.442446  -10.242320 104.909552 1.047561 8.000000 368
6.459948  -10.242397 104.911107 1.047539 8.000000 369
6.477451  -10.242474 104.912650 1.047518 8.000000 370
6.494953  -10.242551 104.914183 1.047496 8.000000 371
6.512455  -10.242626 104.915704 1.047474 8.000000 372
6.529958  -10.242702 104.917214 1.047453 8.000000 373
6.547460  -10.242776 104.918712 1.047432 8.000000 374
