 # inv_tmp, energy, phys_var, phys_doublon, phys_num, step_i
0.0206842322088548  7.3079893995867877 89.6990440011492751 1.9622412785700414 7.9999999999999982 1
0.0410517043677525  6.5619018356243579 78.7047892511816940 1.9160393486597376 8.0000000000000000 2
0.0611218510107401  5.8354336332892602 68.9181693211859852 1.8712898407598249 8.0000000000000000 3
0.0809149506556089  5.1307559952710013 60.2990673881299344 1.8282080783175605 8.0000000000000071 4
0.1004515593863277  4.4495294937046053 52.7921454373784940 1.7869631495494926 7.9999999999999929 5
0.1197520556695713  3.7929519213324654 46.3308811838866959 1.7476800469769147 7.9999999999999964 6
0.1388362940948863  3.1618143420636402 40.8413067540292190 1.7104430182126613 7.9999999999999964 7
0.1577233561972186  2.5565588650455244 36.2452851438684931 1.6752996148002024 8.0000000000000000 8
0.1764313817371090  1.9773336082532242 32.4632459761061156 1.6422650467799009 7.9999999999999982 9
0.1949774628636275  1.4240422135940221 29.4163686360020051 1.6113265728253947 8.0000000000000000 10
0.2133775851958297  0.8963868449009981 27.0282461931010758 1.5824477584189809 8.0000000000000000 11
0.2316466027866150  0.3939047182661135 25.2260896352509931 1.5555725090461017 8.0000000000000036 12
0.2497982371926226  -0.0840011210770188 23.9415430584240383 1.5306288323627806 8.0000000000000053 13
0.2678450938206772  -0.5380357750590299 23.1111812770260201 1.5075323084962668 8.0000000000000089 14
0.2857986910320571  -0.9689902065891411 22.6767560148542060 1.4861892585730447 8.0000000000000000 15
0.3036694990837799  -1.3777218210889872 22.5852485781113295 1.4664996050900392 7.9999999999999947 16
0.3214669869506382  -1.7651372618885897 22.7887778145662487 1.4483594188905877 7.9999999999999973 17
0.3391996755573652  -2.1321769864479134 23.2444034526280277 1.4316631492252230 7.9999999999999982 18
0.3568751961267147  -2.4798013771387013 23.9138571720507542 1.4163055368356454 8.0000000000000000 19
0.3745003523645616  -2.8089782758376280 24.7632271587012980 1.4021832151398965 7.9999999999999929 20
0.3920811851673415  -3.1206719140941743 25.7626163940686972 1.3891960107045684 7.9999999999999982 21
0.4096230385194043  -3.4158332476596636 26.8857903877435369 1.3772479603571113 7.9999999999999991 22
0.4271306252822502  -3.6953917074032256 28.1098263206618029 1.3662480677128432 8.0000000000000036 23
0.4446080916723990  -3.9602483604097021 29.4147724875593575 1.3561108260146977 8.0000000000000036 24
0.4620590793718610  -4.2112704461337014 30.7833243955693021 1.3467565367445609 7.9999999999999911 25
0.4794867843987826  -4.4492872211308132 32.2005218053351143 1.3381114544499673 8.0000000000000000 26
0.4968940120676094  -4.6750870176566908 33.6534693246405254 1.3301077878076804 7.9999999999999991 27
0.5142832275713787  -4.8894153994699678 35.1310818289566100 1.3226835853914349 8.0000000000000053 28
0.5316566019103710  -5.0929742837612668 36.6238549430376068 1.3157825322400056 8.0000000000000036 29
0.5490160530621868  -5.2864218912080387 38.1236600319681571 1.3093536804417858 8.0000000000000000 30
0.5663632824331786  -5.4703733858576218 39.6235625809713383 1.3033511338317927 8.0000000000000018 31
0.5836998067480068  -5.6454020715992623 41.1176624553789338 1.2977337037523609 8.0000000000000000 32
0.6010269856233094  -5.8120410210086044 42.6009542925072680 1.2924645498182259 7.9999999999999947 33
0.6183460451350888  -5.9707850240138143 44.0692061557998471 1.2875108168561118 7.9999999999999947 34
0.6356580977304034  -6.1220927569911110 45.5188545518003522 1.2828432767192948 8.0000000000000000 35
0.6529641588557256  -6.2663890866154146 46.9469139491525169 1.2784359815349993 7.9999999999999982 36
0.6702651606804054  -6.4040674363568026 48.3508990263012208 1.2742659331269190 7.9999999999999929 37
0.6875619632873580  -6.5354921564163888 49.7287579947390981 1.2703127718498044 7.9999999999999973 38
0.7048553636874274  -6.6610008497993105 51.0788154845325408 1.2665584868501967 8.0000000000000036 39
0.7221461029914600  -6.7809066179313886 52.3997236283428194 1.2629871487942943 7.9999999999999947 40
0.7394348720472170  -6.8955001986487954 53.6904201315340401 1.2595846653460332 7.9999999999999929 41
0.7567223158186847  -7.0050519775168461 54.9500922636213289 1.2563385591024345 7.9999999999999947 42
0.7740090367546045  -7.1098138603074892 56.1781458463353189 1.2532377672680479 7.9999999999999964 43
0.7912955973623005  -7.2100210001655665 57.3741784433996855 1.2502724620482102 8.0000000000000071 44
0.8085825221730256  -7.3058933776226729 58.5379560752452619 1.2474338905376769 8.0000000000000071 45
0.8258702992567386  -7.3976372352869078 59.6693928876506163 1.2447142327566061 8.0000000000000018 46
0.8431593814179168  -7.4854463718625999 60.7685332966369174 1.2421064764223342 7.9999999999999929 47
0.8604501871799934  -7.5695033022501095 61.8355362132372193 1.2396043070290319 8.0000000000000089 48
0.8777431016444660  -7.6499802919503388 62.8706610216867858 1.2372020118261562 8.0000000000000000 49
0.8950384772916851  -7.7270402749522145 63.8742550440255314 1.2348943963315939 7.9999999999999920 50
0.9123366347737909  -7.8008376648059947 64.8467422740430948 1.2326767120785511 7.9999999999999991 51
0.9296378637361246  -7.8715190687630550 65.7886132049817434 1.2305445943710627 8.0000000000000000 52
0.9469424236915397  -7.9392239147676031 66.7004156094701557 1.2284940089064227 8.0000000000000071 53
0.9642505449622544  -8.0040850007792024 67.5827461577836459 1.2265212062102280 7.9999999999999920 54
0.9815624296959575  -8.0662289754436571 68.4362427826753787 1.2246226829185287 8.0000000000000071 55
0.9988782529566790  -8.1257767585589793 69.2615777165352853 1.2227951490291504 7.9999999999999956 56
1.0161981638861763  -8.1828439091423775 70.0594511403217268 1.2210355003296149 8.0000000000000036 57
1.0335222869281555  -8.2375409482230690 70.8305853942317754 1.2193407952903199 8.0000000000000000 58
1.0508507231052533  -8.2899736427940915 71.5757197080798591 1.2177082357888032 7.9999999999999982 59
1.0681835513372575  -8.3402432566689217 72.2956054153196845 1.2161351511026428 8.0000000000000089 60
1.0855208297883117  -8.3884467733257004 72.9910016190478075 1.2146189846752105 7.9999999999999991 61
1.1028625972307178  -8.4346770951915016 73.6626712815259452 1.2131572832196065 8.0000000000000000 62
1.1202088744132810  -8.4790232232301950 74.3113777110474416 1.2117476877817055 8.0000000000000142 63
1.1375596654227975  -8.5215704201556459 74.9378814216300952 1.2103879264337354 8.0000000000000036 64
1.1549149590282097  -8.5624003600984224 75.5429373422036434 1.2090758083150093 7.9999999999999973 65
1.1722747299980230  -8.6015912671107664 76.1272923528472063 1.2078092187768512 8.0000000000000000 66
1.1896389403827425  -8.6392180445002786 76.6916831263477263 1.2065861154246986 8.0000000000000018 67
1.2070075407552987  -8.6753523966357786 77.2368342539520256 1.2054045248820129 7.9999999999999964 68
1.2243804714036235  -8.7100629445661752 77.7634566347629033 1.2042625401284006 8.0000000000000071 69
1.2417576634707064  -8.7434153365324878 78.2722461088089574 1.2031583182886016 8.0000000000000053 70
1.2591390400385523  -8.7754723542304447 78.7638823144351363 1.2020900787700743 8.0000000000000000 71
1.2765245171534731  -8.8062940154930480 79.2390277513173373 1.2010561016649834 8.0000000000000036 72
1.2939140047910891  -8.8359376739048940 79.6983270311244638 1.2000547263479957 8.0000000000000000 73
1.3113074077602125  -8.8644581157307734 80.1424062986175443 1.1990843502145796 8.0000000000000053 74
1.3287046265455495  -8.8919076544344655 80.5718728067846541 1.1981434275156655 8.0000000000000053 75
1.3461055580897523  -8.9183362229794199 80.9873146304703795 1.1972304682540882 8.0000000000000000 76
1.3635100965159139  -8.9437914640352858 81.3893005038337094 1.1963440371160554 8.0000000000000018 77
1.3809181337920307  -8.9683188181624267 81.7783797678669799 1.1954827524174920 7.9999999999999956 78
1.3983295603393238  -8.9919616100078379 82.1550824151205035 1.1946452850505300 8.0000000000000000 79
1.4157442655866008  -9.0147611325167158 82.5199192196756854 1.1938303574197586 7.9999999999999947 80
1.4331621384730542  -9.0367567291451039 82.8733819413052970 1.1930367423614978 8.0000000000000000 81
1.4505830679020557  -9.0579858740453520 83.2159435936328009 1.1922632620420754 7.9999999999999982 82
1.4680069431486069  -9.0784842501904723 83.5480587669527495 1.1915087868334537 7.9999999999999982 83
1.4854336542231674  -9.0982858253998646 83.8701639971838091 1.1907722341661440 8.0000000000000018 84
1.5028630921946065  -9.1174229262305975 84.1826781732151801 1.1900525673607332 7.9999999999999929 85
1.5202951494749937  -9.1359263097018175 84.4860029756416253 1.1893487944402785 8.0000000000000071 86
1.5377297200689295  -9.1538252328246461 84.7805233405815954 1.1886599669264297 8.0000000000000036 87
1.5551666997900209  -9.1711475199176888 85.0666079429364999 1.1879851786226985 7.9999999999999938 88
1.5726059864470543  -9.1879196276942494 85.3446096940509875 1.1873235643884108 8.0000000000000000 89
1.5900474800022992  -9.2041667081159932 85.6148662493113761 1.1866742989070609 7.9999999999999982 90
1.6074910827042832  -9.2199126690154269 85.8777005217436056 1.1860365954527810 8.0000000000000036 91
1.6249366991972611  -9.2351802324966119 86.1334211981525044 1.1854097046584802 7.9999999999999902 92
1.6423842366094750  -9.2499909911318507 86.3823232547936044 1.1847929132891404 8.0000000000000053 93
1.6598336046221980  -9.2643654619774320 86.6246884699653350 1.1841855430234258 7.9999999999999982 94
1.6772847155214097  -9.2783231384395979 86.8607859312889445 1.1835869492466962 7.9999999999999947 95
1.6947374842338501  -9.2918825400256999 87.0908725357610365 1.1829965198580576 8.0000000000000000 96
1.7121918283490694  -9.3050612600217910 87.3151934809776265 1.1824136740939966 7.9999999999999991 97
1.7296476681289747  -9.3178760111419692 87.5339827461884852 1.1818378613707661 8.0000000000000000 98
1.7471049265062690  -9.3303426691983180 87.7474635620869776 1.1812685601474668 8.0000000000000053 99
1.7645635290730624  -9.3424763148433652 87.9558488684509712 1.1807052768115032 8.0000000000000071 100
1.7820234040608396  -9.3542912734402943 88.1593417589443789 1.1801475445878626 7.9999999999999947 101
1.7994844823128631  -9.3658011531171610 88.3581359125543173 1.1795949224734070 7.9999999999999964 102
1.8169466972500077  -9.3770188810634547 88.5524160112873204 1.1790469941971635 7.9999999999999973 103
1.8344099848309265  -9.3879567381284676 88.7423581438779934 1.1785033672074239 8.0000000000000036 104
1.8518742835073720  -9.3986263917812050 88.9281301953761272 1.1779636716862127 8.0000000000000000 105
1.8693395341754178  -9.4090389274921531 89.1098922225752830 1.1774275595916057 8.0000000000000036 106
1.8868056801232573  -9.4192048785968563 89.2877968153267432 1.1768947037281199 7.9999999999999947 107
1.9042726669761905  -9.4291342547010846 89.4619894438618246 1.1763647968453697 8.0000000000000036 108
1.9217404426393414  -9.4388365686867512 89.6326087922954429 1.1758375507649503 7.9999999999999982 109
1.9392089572386042  -9.4483208623766508 89.7997870785473395 1.1753126955355147 7.9999999999999973 110
1.9566781630602543  -9.4575957309151448 89.9636503609442997 1.1747899786157874 8.0000000000000071 111
1.9741480144896206  -9.4666693459208826 90.1243188318165949 1.1742691640852860 8.0000000000000036 112
1.9916184679491611  -9.4755494774659770 90.2819070984171788 1.1737500318823957 8.0000000000000000 113
2.0090894818362570  -9.4842435149348230 90.4365244515206825 1.1732323770693467 7.9999999999999973 114
2.0265610164609940  -9.4927584868140524 90.5882751220738385 1.1727160091236728 7.9999999999999964 115
2.0440330339841708  -9.5011010794635844 90.7372585262782678 1.1722007512556061 7.9999999999999911 116
2.0615054983557406  -9.5092776549171028 90.8835694994993304 1.1716864397508762 7.9999999999999964 117
2.0789783752538700  -9.5172942677584942 91.0272985193933692 1.1711729233383066 7.9999999999999947 118
2.0964516320247704  -9.5251566811191353 91.1685319186543808 1.1706600625816426 7.9999999999999947 119
2.1139252376234352  -9.5328703818391407 91.3073520877683507 1.1701477292949367 7.9999999999999956 120
2.1313991625553950  -9.5404405948341253 91.4438376681769682 1.1696358059808911 8.0000000000000018 121
2.1488733788195891  -9.5478722967070091 91.5780637362298648 1.1691241852914855 7.9999999999999964 122
2.1663478598524324  -9.5551702286432612 91.7101019783106892 1.1686127695102539 7.9999999999999938 123
2.1838225804731359  -9.5623389086257902 91.8400208575086765 1.1681014700555326 8.0000000000000018 124
2.2012975168303428  -9.5693826430041167 91.9678857721994802 1.1675902070040367 8.0000000000000036 125
2.2187726463501094  -9.5763055374515673 92.0937592068918889 1.1670789086341249 8.0000000000000000 126
2.2362479476852672  -9.5831115073418136 92.2177008756826666 1.1665675109880795 7.9999999999999991 127
2.2537234006661846  -9.5898042875750473 92.3397678586540991 1.1660559574527829 8.0000000000000036 128
2.2711989862529403  -9.5963874418825945 92.4600147315374983 1.1655441983581494 7.9999999999999929 129
2.2886746864889118  -9.6028643716375601 92.5784936889566978 1.1650321905927210 8.0000000000000018 130
2.3061504844557841  -9.6092383241972090 92.6952546615461870 1.1645198972357624 8.0000000000000018 131
2.3236263642299622  -9.6155124008021104 92.8103454272377348 1.1640072872053393 7.9999999999999947 132
2.3411023108403888  -9.6216895640556608 92.9238117169949192 1.1634943349217364 7.9999999999999956 133
2.3585783102277409  -9.6277726450059191 93.0356973152552058 1.1629810199856701 8.0000000000000018 134
2.3760543492049946  -9.6337643498514485 93.1460441553432048 1.1624673268707602 8.0000000000000036 135
2.3935304154193320  -9.6396672662909406 93.2548924100954792 1.1619532446296974 8.0000000000000036 136
2.4110064973153689  -9.6454838695359104 93.3622805779315001 1.1614387666136079 7.9999999999999876 137
2.4284825840996751  -9.6512165280044719 93.4682455645984760 1.1609238902040966 7.9999999999999947 138
2.4459586657065655  -9.6568675087131837 93.5728227607975782 1.1604086165574665 7.9999999999999929 139
2.4634347327651227  -9.6624389823835060 93.6760461159040574 1.1598929503606792 8.0000000000000089 140
2.4809107765674323  -9.6679330282779734 93.7779482079683646 1.1593768995985376 8.0000000000000107 141
2.4983867890379909  -9.6733516387807814 93.8785603101900392 1.1588604753317093 7.9999999999999982 142
2.5158627627042636  -9.6786967237365822 93.9779124540388153 1.1583436914851102 8.0000000000000000 143
2.5333386906683497  -9.6839701145603136 94.0760334891903938 1.1578265646462413 7.9999999999999982 144
2.5508145665797377  -9.6891735681307516 94.1729511404420379 1.1573091138731106 8.0000000000000036 145
2.5682903846091034  -9.6943087704791182 94.2686920617546207 1.1567913605113040 8.0000000000000071 146
2.5857661394231308  -9.6993773402840127 94.3632818875717589 1.1562733280198696 8.0000000000000018 147
2.6032418261603141  -9.7043808321830447 94.4567452815519886 1.1557550418056390 8.0000000000000036 148
2.6207174404077205  -9.7093207399109751 94.5491059828445373 1.1552365290656288 8.0000000000000053 149
2.6381929781786746  -9.7141984992737598 94.6403868500347301 1.1547178186372071 7.9999999999999911 150
2.6556684358913354  -9.7190154909674291 94.7306099028792232 1.1541989408557023 8.0000000000000000 151
2.6731438103481402  -9.7237730432498388 94.8197963619377617 1.1536799274191061 7.9999999999999893 152
2.6906190987160792  -9.7284724344736677 94.9079666862179323 1.1531608112596445 7.9999999999999947 153
2.7080942985077794  -9.7331148954875371 94.9951406089233501 1.1526416264218411 7.9999999999999964 154
2.7255694075633636  -9.7377016119128790 95.0813371714128976 1.1521224079468770 8.0000000000000036 155
2.7430444240330614  -9.7422337263027607 95.1665747554516628 1.1516031917629277 7.9999999999999991 156
2.7605193463605424  -9.7467123401892888 95.2508711138515167 1.1510840145812482 7.9999999999999982 157
2.7779941732669480  -9.7511385160253727 95.3342433995721308 1.1505649137977487 8.0000000000000000 158
2.7954689037355971  -9.7555132790263777 95.4167081933705816 1.1500459273998236 8.0000000000000000 159
2.8129435369973321  -9.7598376189175120 95.4982815300678425 1.1495270938782274 7.9999999999999947 160
2.8304180725165016  -9.7641124915911899 95.5789789235054030 1.1490084521437516 8.0000000000000018 161
2.8478925099775321  -9.7683388206797677 95.6588153902558531 1.1484900414485031 7.9999999999999991 162
2.8653668492720845  -9.7725174990479111 95.7378054721538660 1.1479719013115997 7.9999999999999920 163
2.8828410904867638  -9.7766493902088953 95.8159632577073808 1.1474540714490706 7.9999999999999947 164
2.9003152338913689  -9.7807353296686834 95.8933024024412646 1.1469365917077685 7.9999999999999982 165
2.9177892799276548  -9.7847761262018800 95.9698361482353732 1.1464195020031493 7.9999999999999893 166
2.9352632291985881  -9.7887725630629969 96.0455773417019856 1.1459028422607209 8.0000000000000018 167
2.9527370824580879  -9.7927253991362715 96.1205384516513845 1.1453866523609881 7.9999999999999893 168
2.9702108406012133  -9.7966353700277882 96.1947315856983778 1.1448709720877874 7.9999999999999911 169
2.9876845046548035  -9.8005031891021375 96.2681685060440628 1.1443558410797858 7.9999999999999982 170
3.0051580757685343  -9.8043295484672512 96.3408606444815376 1.1438412987850683 8.0000000000000018 171
3.0226315552063840  -9.8081151199097647 96.4128191166615522 1.1433273844186311 8.0000000000000018 172
3.0401049443384887  -9.8118605557835021 96.4840547356561586 1.1428141369226692 8.0000000000000000 173
3.0575782446333788  -9.8155664898535342 96.5545780248565677 1.1423015949295157 7.9999999999999885 174
3.0750514576505714  -9.8192335380982954 96.6243992302376711 1.1417897967271260 8.0000000000000036 175
3.0925245850335150  -9.8228622994714918 96.6935283320205770 1.1412787802269619 8.0000000000000000 176
3.1099976285028581  -9.8264533566266348 96.7619750557670102 1.1407685829342120 7.9999999999999982 177
3.1274705898500499  -9.8300072766052153 96.8297488829292661 1.1402592419201811 7.9999999999999973 178
3.1449434709312412  -9.8335246114912049 96.8968590608863281 1.1397507937967899 8.0000000000000018 179
3.1624162736614814  -9.8370058990329916 96.9633146124907057 1.1392432746930536 7.9999999999999858 180
3.1798890000091959  -9.8404516632351395 97.0291243451530079 1.1387367202334895 8.0000000000000071 181
3.1973616519909465  -9.8438624149204195 97.0942968594804370 1.1382311655182793 7.9999999999999964 182
3.2148342316664351  -9.8472386522651139 97.1588405575027707 1.1377266451052210 8.0000000000000053 183
3.2323067411337747  -9.8505808613074510 97.2227636504952955 1.1372231929932450 7.9999999999999947 184
3.2497791825249878  -9.8538895164317868 97.2860741664263173 1.1367208426075455 8.0000000000000000 185
3.2672515580017460  -9.8571650808288389 97.3487799570434760 1.1362196267861435 7.9999999999999929 186
3.2847238697513164  -9.8604080069339943 97.4108887046221525 1.1357195777678917 7.9999999999999973 187
3.3021961199827383  -9.8636187368439696 97.4724079283852802 1.1352207271817820 8.0000000000000036 188
3.3196683109231868  -9.8667977027137610 97.5333449906192840 1.1347231060375367 7.9999999999999991 189
3.3371404448145374  -9.8699453271342925 97.5937071024948608 1.1342267447173995 7.9999999999999964 190
3.3546125239101183  -9.8730620234920146 97.6535013296110606 1.1337316729690574 8.0000000000000036 191
3.3720845504716430  -9.8761481963111262 97.7127345972734815 1.1332379198996407 7.9999999999999929 192
3.3895565267663041  -9.8792042415798544 97.7714136955249131 1.1327455139707618 8.0000000000000000 193
3.4070284550640486  -9.8822305470606970 97.8295452839333421 1.1322544829944885 7.9999999999999973 194
3.4245003376349894  -9.8852274925864769 97.8871358961563232 1.1317648541302714 7.9999999999999947 195
3.4419721767469871  -9.8881954503420122 97.9441919442891731 1.1312766538827053 8.0000000000000071 196
