 # inv_tmp, energy, phys_var, phys_doublon, phys_num, step_i
0.0225008720329112  7.1145560458868102 86.4375345890358915 1.9255458616101495 8.0000000000000000 1
0.0446000646885295  6.3140314272067899 74.9717997264186948 1.8742005235028214 8.0000000000000000 2
0.0663260876631630  5.5378574042992490 64.8277178096166296 1.8247167421619541 7.9999999999999982 3
0.0877098384667766  4.7901637963875663 55.9839415624937544 1.7773981116972546 8.0000000000000000 4
0.1087829410503620  4.0738220216861851 48.3873136704254563 1.7324509709995803 7.9999999999999982 5
0.1295764167545565  3.3905553143178437 41.9610919889400833 1.6899935224575913 7.9999999999999991 6
0.1501197336944734  2.7411082110425875 36.6130998108060624 1.6500694890383207 8.0000000000000018 7
0.1704402140656062  2.1254405967757908 32.2429819210487096 1.6126635675763918 8.0000000000000018 8
0.1905627387021648  1.5429192370464002 28.7481160834696823 1.5777165460992189 8.0000000000000000 9
0.2105096729028954  0.9924893036831202 26.0280459277529062 1.5451387143340856 8.0000000000000000 10
0.2303009401703732  0.4728172463181057 23.9875231177348738 1.5148208998291395 8.0000000000000000 11
0.2499541830775711  -0.0175969231601474 22.5383709826253771 1.4866429972272868 8.0000000000000018 12
0.2694849663929267  -0.4803356120812438 21.6004274814109536 1.4604801986548392 8.0000000000000000 13
0.2889069926162333  -0.9170034495963839 21.1018187466115066 1.4362073040651229 8.0000000000000000 14
0.3082323121397114  -1.3291858719925587 20.9787796333413539 1.4137015383083289 8.0000000000000000 15
0.3274715188451067  -1.7184217816998102 21.1751924980468118 1.3928442742665694 8.0000000000000036 16
0.3466339274528184  -2.0861863402792959 21.6419708842799352 1.3735219969170751 8.0000000000000000 17
0.3657277320839435  -2.4338808404529511 22.3363764651535206 1.3556267678658160 8.0000000000000000 18
0.3847601470428106  -2.7628274187448452 23.2213273621647787 1.3390563790308490 7.9999999999999991 19
0.4037375314094575  -3.0742670376941006 24.2647335975376777 1.3237143249468288 8.0000000000000000 20
0.4226654991047511  -3.3693596684856337 25.4388797371779063 1.3095096775880604 7.9999999999999982 21
0.4415490159465169  -3.6491859588461839 26.7198642633842987 1.2963569147540568 7.9999999999999973 22
0.4603924850163055  -3.9147499081589947 28.0870984923451701 1.2841757307338997 8.0000000000000000 23
0.4791998214795773  -4.1669822242320729 29.5228637767287765 1.2728908436670032 8.0000000000000000 24
0.4979745178713366  -4.4067441316719638 31.0119234372442634 1.2624318054627124 8.0000000000000000 25
0.5167197007720148  -4.6348314614449890 32.5411847220558883 1.2527328154665462 8.0000000000000000 26
0.5354381797415848  -4.8519788896295841 34.0994056671831984 1.2437325368622103 8.0000000000000018 27
0.5541324893390132  -5.0588642199965284 35.6769417365592005 1.2353739140795212 8.0000000000000000 28
0.5728049250176687  -5.2561126254473818 37.2655273708399335 1.2276039895693747 7.9999999999999982 29
0.5914575736478346  -5.4443007804397094 38.8580879517065654 1.2203737187804691 8.0000000000000000 30
0.6100923393715630  -5.6239608316738599 40.4485781208099695 1.2136377827713363 8.0000000000000000 31
0.6287109654422376  -5.7955841679684390 42.0318428362070833 1.2073543984713400 7.9999999999999991 32
0.6473150526427079  -5.9596249624514286 43.6034979789487522 1.2014851270939515 7.9999999999999982 33
0.6659060748139971  -6.1165034708445560 45.1598277245924891 1.1959946815769051 8.0000000000000000 34
0.6844853919638468  -6.2666090786306459 46.6976962620307816 1.1908507341739276 8.0000000000000000 35
0.7030542613630401  -6.4103030972469419 48.2144717726194543 1.1860237254620829 8.0000000000000000 36
0.7216138469793622  -6.5479213152022178 49.7079608762150613 1.1814866760738849 7.9999999999999964 37
0.7401652275455424  -6.6797763143010123 51.1763520089615795 1.1772150024327579 8.0000000000000036 38
0.7587094035093261  -6.8061595641488886 52.6181664229309689 1.1731863376821559 8.0000000000000036 39
0.7772473030713279  -6.9273433100074797 54.0322156928933666 1.1693803588694074 7.9999999999999973 40
0.7957797874794842  -7.0435822700686810 55.4175647835895901 1.1657786212894197 7.9999999999999991 41
0.8143076557174979  -7.1551151585163746 56.7734998749259532 1.1623644007231078 8.0000000000000000 42
0.8328316486982248  -7.2621660505146721 58.0995002654021775 1.1591225441307027 7.9999999999999991 43
0.8513524530509645  -7.3649456046520125 59.3952137785167480 1.1560393291887778 8.0000000000000000 44
0.8698707045735345  -7.4636521575050399 60.6604351853562775 1.1531023328978767 7.9999999999999982 45
0.8883869914052812  -7.5584727039634210 61.8950872312923153 1.1503003093393067 7.9999999999999982 46
0.9069018569652848  -7.6495837758530651 63.0992039176710691 1.1476230765276607 8.0000000000000000 47
0.9254158026904921  -7.7371522302688298 64.2729157423390660 1.1450614121916216 8.0000000000000018 48
0.9439292906009400  -7.8213359579186328 65.4164366473236640 1.1426069582200327 8.0000000000000036 49
0.9624427457132564  -7.9022845207181991 66.5300524593065461 1.1402521334328961 8.0000000000000036 50
0.9809565583189445  -7.9801397268767804 67.6141106398223286 1.1379900542770180 7.9999999999999982 51
0.9994710861403193  -8.0550361507897392 68.6690111883568761 1.1358144630021789 8.0000000000000018 52
1.0179866563741569  -8.1271016042081889 69.6951985635325428 1.1337196628443671 7.9999999999999991 53
1.0365035676309777  -8.1964575643899860 70.6931545060522240 1.1317004597261540 8.0000000000000018 54
1.0550220917762634  -8.2632195642472990 71.6633916626139751 1.1297521099787147 8.0000000000000036 55
1.0735424756787002  -8.3274975488910137 72.6064479231038291 1.1278702735938075 8.0000000000000036 56
1.0920649428696656  -8.3893962024248623 73.5228813944333126 1.1260509725252490 8.0000000000000000 57
1.1105896951175238  -8.4490152483584460 74.4132659437594839 1.1242905535766852 8.0000000000000036 58
1.1291169139198745  -8.5064497265813284 75.2781872517956856 1.1225856554342371 7.9999999999999991 59
1.1476467619165833  -8.5617902494654636 76.1182393237264421 1.1209331794276163 7.9999999999999964 60
1.1661793842262484  -8.6151232393343271 76.9340214110799110 1.1193302636305082 8.0000000000000000 61
1.1847149097086398  -8.6665311492497903 77.7261353029473412 1.1177742599394092 7.9999999999999991 62
1.2032534521555986  -8.7160926688173124 78.4951829493080169 1.1162627137989773 7.9999999999999973 63
1.2217951114128736  -8.7638829164915215 79.2417643830226268 1.1147933462705490 8.0000000000000000 64
1.2403399744353729  -8.8099736196751550 79.9664759104018685 1.1133640381684458 8.0000000000000000 65
1.2588881162783367  -8.8544332837400024 80.6699085432001084 1.1119728160155322 8.0000000000000018 66
1.2774396010269611  -8.8973273509561785 81.3526466474962291 1.1106178395949491 7.9999999999999973 67
1.2959944826670269  -8.9387183501935894 82.0152667872537648 1.1092973908988757 8.0000000000000018 68
1.3145528058991092  -8.9786660381533476 82.6583367424363189 1.1080098642973837 8.0000000000000018 69
1.3331146068989437  -9.0172275327957934 83.2824146834323358 1.1067537577709508 8.0000000000000000 70
1.3516799140265383  -9.0544574395532713 83.8880484852354869 1.1055276650689043 8.0000000000000000 71
1.3702487484865875  -9.0904079708484566 84.4757751663631353 1.1043302686730827 7.9999999999999982 72
1.3888211249427376  -9.1251290593810150 85.0461204388901137 1.1031603334613416 8.0000000000000000 73
1.4073970520882018  -9.1586684655957598 85.5995983572421579 1.1020167009792499 7.9999999999999982 74
1.4259765331751819  -9.1910718797028377 86.1367110545539560 1.1008982842405994 7.9999999999999991 75
1.4445595665054922  -9.2223830185836153 86.6579485564508900 1.0998040629881705 7.9999999999999991 76
1.4631461458847133  -9.2526437178847765 87.1637886630817746 1.0987330793557981 8.0000000000000000 77
1.4817362610421325  -9.2818940195756046 87.6546968911094382 1.0976844338811393 8.0000000000000000 78
1.5003298980186384  -9.3101722552203476 88.1311264681776834 1.0966572818259026 8.0000000000000000 79
1.5189270395246628  -9.3375151251970934 88.5935183731054394 1.0956508297666314 8.0000000000000000 80
1.5375276652701566  -9.3639577740770257 89.0423014157369437 1.0946643324246583 8.0000000000000000 81
1.5561317522685132  -9.3895338623625229 89.4778923509900750 1.0936970897085692 7.9999999999999982 82
1.5747392751162415  -9.4142756347691243 89.9006960222058638 1.0927484439465740 8.0000000000000000 83
1.5933502062501048  -9.4382139852244116 90.3111055294145046 1.0918177772896434 7.9999999999999982 84
1.6119645161833498  -9.4613785187463009 90.7095024185981345 1.0909045092691994 8.0000000000000000 85
1.6305821737225483  -9.4837976103537809 91.0962568884534534 1.0900080944956285 8.0000000000000036 86
1.6492031461664913  -9.5054984611545628 91.4717280115420692 1.0891280204859775 8.0000000000000036 87
1.6678273994884831  -9.5265071517463813 91.8362639670646956 1.0882638056109195 8.0000000000000053 88
1.6864548985032970  -9.5468486930615768 92.1902022828096790 1.0874149971525435 8.0000000000000036 89
1.7050856070199658  -9.5665470747782191 92.5338700841136159 1.0865811694657190 7.9999999999999991 90
1.7237194879815183  -9.5856253114145957 92.8675843479269787 1.0857619222367680 8.0000000000000000 91
1.7423565035926738  -9.6041054862187405 93.1916521603110937 1.0849568788339918 8.0000000000000000 92
1.7609966154364516  -9.6220087929590417 93.5063709759016035 1.0841656847452739 8.0000000000000000 93
1.7796397845805754  -9.6393555757171097 93.8120288780606870 1.0833880060984931 8.0000000000000018 94
1.7982859716744961  -9.6561653667793159 94.1089048386084244 1.0826235282609242 8.0000000000000000 95
1.8169351370377846  -9.6724569227190873 94.3972689761762069 1.0818719545141533 8.0000000000000000 96
1.8355872407405984  -9.6882482587574810 94.6773828123566261 1.0811330048013010 8.0000000000000000 97
1.8542422426768692  -9.7035566814858996 94.9494995249483509 1.0804064145435723 7.9999999999999982 98
1.8729001026308094  -9.7183988200305151 95.2138641976991380 1.0796919335233321 8.0000000000000000 99
1.8915607803372836  -9.7327906557346076 95.4707140660453177 1.0789893248310247 8.0000000000000000 100
1.9102242355365595  -9.7467475504312038 95.7202787584332526 1.0782983638733956 8.0000000000000000 101
1.9288904280239019  -9.7602842733750848 95.9627805328792931 1.0776188374405344 8.0000000000000000 102
1.9475593176944364  -9.7734150269000928 96.1984345084943868 1.0769505428293518 8.0000000000000036 103
1.9662308645836863  -9.7861534708642779 96.4274488917562280 1.0762932870211559 7.9999999999999991 104
1.9849050289041372  -9.7985127459426291 96.6500251973622255 1.0756468859110500 8.0000000000000000 105
2.0035817710781711  -9.8105054958242093 96.8663584635442447 1.0750111635869151 8.0000000000000000 106
2.0222610517676687  -9.8221438883676804 97.0766374617622319 1.0743859516558001 7.9999999999999964 107
2.0409428319005718  -9.8334396357667586 97.2810449007309330 1.0737710886155731 8.0000000000000000 108
2.0596270726946511  -9.8444040137743372 97.4797576247607935 1.0731664192697228 7.9999999999999991 109
2.0783137356787300  -9.8550478800319308 97.6729468064233828 1.0725717941832771 8.0000000000000036 110
2.0970027827115723  -9.8653816915485280 97.8607781335696245 1.0719870691777973 7.9999999999999982 111
2.1156941759986352  -9.8754155213709343 98.0434119907524178 1.0714121048635135 8.0000000000000000 112
2.1343878781068772  -9.8851590744853706 98.2210036351171993 1.0708467662066505 8.0000000000000000 113
2.1530838519777782  -9.8946217029884380 98.3937033668408958 1.0702909221301020 8.0000000000000000 114
2.1717820609387344  -9.9038124205632538 98.5616566942093186 1.0697444451456253 7.9999999999999982 115
2.1904824687129629  -9.9127399162950809 98.7250044934326354 1.0692072110157949 8.0000000000000018 116
2.2091850394280512  -9.9214125678587752 98.8838831633071038 1.0686790984440027 7.9999999999999964 117
2.2278897376232654  -9.9298384541090954 99.0384247748359883 1.0681599887908706 7.9999999999999991 118
2.2465965282557243  -9.9380253671028029 99.1887572159286606 1.0676497658154536 7.9999999999999982 119
2.2653053767055469  -9.9459808235806513 99.3350043313003255 1.0671483154397274 7.9999999999999982 120
2.2840162487800550  -9.9537120759354032 99.4772860576966025 1.0666555255348646 8.0000000000000000 121
2.3027291107171224  -9.9612261226909276 99.6157185545693267 1.0661712857278887 8.0000000000000000 122
2.3214439291877387  -9.9685297185162298 99.7504143303321484 1.0656954872273512 7.9999999999999991 123
2.3401606712978680  -9.9756293837968002 99.8814823643220961 1.0652280226667308 8.0000000000000000 124
2.3588793045896570  -9.9825314137847343 100.0090282245956530 1.0647687859643125 8.0000000000000000 125
2.3775997970420568  -9.9892418873479691 100.1331541816857680 1.0643176721983731 8.0000000000000000 126
2.3963221170709139  -9.9957666753377499 100.2539593184446147 1.0638745774965424 7.9999999999999964 127
2.4150462335285718  -10.0021114485928067 100.3715396360965997 1.0634393989382755 8.0000000000000000 128
2.4337721157030385  -10.0082816855973888 100.4859881566232218 1.0630120344694260 8.0000000000000000 129
2.4524997333167486  -10.0142826798098259 100.5973950215992687 1.0625923828279575 7.9999999999999982 130
2.4712290565249755  -10.0201195466771225 100.7058475875988961 1.0621803434798980 7.9999999999999991 131
2.4899600559139081  -10.0257972303504079 100.8114305182847090 1.0617758165646658 8.0000000000000036 132
2.5086927024984411  -10.0313205101154708 100.9142258732935034 1.0613787028489809 8.0000000000000000 133
2.5274269677196939  -10.0366940065517003 101.0143131940285741 1.0609889036885980 8.0000000000000000 134
2.5461628234422942  -10.0419221874320304 101.1117695864629411 1.0606063209971401 8.0000000000000000 135
2.5649002419514484  -10.0470093733761523 101.2066698010600589 1.0602308572213868 7.9999999999999982 136
2.5836391959498157  -10.0519597432683234 101.2990863099114733 1.0598624153223781 7.9999999999999982 137
2.6023796585542143  -10.0567773394506865 101.3890893811890521 1.0595008987617573 8.0000000000000000 138
2.6211216032921696  -10.0614660727024905 101.4767471510077712 1.0591462114928070 8.0000000000000000 139
2.6398650040983291  -10.0660297270150156 101.5621256927905165 1.0587982579556787 8.0000000000000036 140
2.6586098353107546  -10.0704719641715101 101.6452890842242454 1.0584569430763384 8.0000000000000000 141
2.6773560716671048  -10.0747963281410780 101.7262994718939240 1.0581221722687943 7.9999999999999991 142
2.6961036883007270  -10.0790062492949470 101.8052171336772318 1.0577938514402045 7.9999999999999991 143
2.7148526607366659  -10.0831050484530458 101.8821005389813905 1.0574718869984887 8.0000000000000036 144
2.7336029648875946  -10.0870959407686946 101.9570064068993247 1.0571561858620975 7.9999999999999982 145
2.7523545770496893  -10.0909820394585026 102.0299897623615664 1.0568466554716318 8.0000000000000000 146
2.7711074738984496  -10.0947663593844403 102.1011039903547015 1.0565432038030029 7.9999999999999982 147
2.7898616324844689  -10.0984518204946667 102.1704008882785359 1.0562457393818867 8.0000000000000000 148
2.8086170302291737  -10.1020412511292772 102.2379307165077478 1.0559541712992073 8.0000000000000000 149
2.8273736449205265  -10.1055373911970499 102.3037422472247044 1.0556684092274471 8.0000000000000000 150
2.8461314547087042  -10.1089428952286724 102.3678828115849484 1.0553883634375614 7.9999999999999982 151
2.8648904381017597  -10.1122603353120155 102.4303983452770836 1.0551139448163300 7.9999999999999982 152
2.8836505739612668  -10.1154922039143678 102.4913334325341481 1.0548450648839669 8.0000000000000000 153
2.9024118414979578  -10.1186409165967213 102.5507313486538550 1.0545816358118456 7.9999999999999991 154
2.9211742202673512  -10.1217088146246219 102.6086341010807530 1.0543235704402052 8.0000000000000000 155
2.9399376901653862  -10.1246981674800214 102.6650824691028845 1.0540707822957123 8.0000000000000036 156
2.9587022314240485  -10.1276111752783997 102.7201160422133626 1.0538231856087767 7.9999999999999982 157
2.9774678246070119  -10.1304499710951603 102.7737732571841320 1.0535806953305262 8.0000000000000018 158
2.9962344506052814  -10.1332166232050191 102.8260914338992791 1.0533432271493504 7.9999999999999982 159
3.0150020906328501  -10.1359131372382762 102.8771068099922559 1.0531106975069549 8.0000000000000000 160
3.0337707262223708  -10.1385414582571496 102.9268545743297807 1.0528830236138453 8.0000000000000000 161
3.0525403392208390  -10.1411034727557414 102.9753688993841507 1.0526601234642041 8.0000000000000018 162
3.0713109117853006  -10.1436010105866359 103.0226829725335023 1.0524419158501022 7.9999999999999982 163
3.0900824263785727  -10.1460358468172593 103.0688290263285580 1.0522283203750167 8.0000000000000018 164
3.1088548657649899  -10.1484097035187695 103.1138383677620709 1.0520192574666123 8.0000000000000000 165
3.1276282130061746  -10.1507242514903560 103.1577414065775429 1.0518146483887785 8.0000000000000000 166
3.1464024514568294  -10.1529811119214095 103.2005676826501315 1.0516144152528843 8.0000000000000000 167
3.1651775647605542  -10.1551818579942470 103.2423458924731534 1.0514184810282527 8.0000000000000000 168
3.1839535368456984  -10.1573280164296165 103.2831039147819041 1.0512267695518365 8.0000000000000000 169
3.2027303519212298  -10.1594210689773963 103.3228688353445932 1.0510392055370965 8.0000000000000000 170
3.2215079944726455  -10.1614624538545471 103.3616669709499263 1.0508557145820763 8.0000000000000000 171
3.2402864492579018  -10.1634535671325370 103.3995238926196691 1.0506762231766797 8.0000000000000036 172
3.2590657013033844  -10.1653957640760897 103.4364644480725559 1.0505006587091570 8.0000000000000000 173
3.2778457358999060  -10.1672903604352953 103.4725127834666978 1.0503289494718102 8.0000000000000000 174
3.2966265385987361  -10.1691386336927820 103.5076923644441393 1.0501610246659179 8.0000000000000000 175
3.3154080952076708  -10.1709418242677536 103.5420259965025593 1.0499968144059098 8.0000000000000000 176
3.3341903917871276  -10.1727011366785920 103.5755358447175354 1.0498362497227922 8.0000000000000000 177
3.3529734146462822  -10.1744177406655076 103.6082434528369731 1.0496792625668483 7.9999999999999982 178
3.3717571503392372  -10.1760927722748704 103.6401697617694282 1.0495257858096290 7.9999999999999991 179
3.3905415856612309  -10.1777273349065975 103.6713351274873958 1.0493757532452535 8.0000000000000000 180
3.4093267076448734  -10.1793225003260908 103.7017593383650933 1.0492290995910418 8.0000000000000036 181
3.4281125035564326  -10.1808793096419201 103.7314616319702196 1.0490857604874986 8.0000000000000000 182
3.4468989608921441  -10.1823987742507036 103.7604607113280224 1.0489456724976722 8.0000000000000000 183
3.4656860673745666  -10.1838818767502239 103.7887747606750679 1.0488087731059073 8.0000000000000018 184
3.4844738109489750  -10.1853295718221410 103.8164214607211306 1.0486750007160190 8.0000000000000000 185
3.5032621797797874  -10.1867427870852794 103.8434180034341097 1.0485442946489101 8.0000000000000000 186
3.5220511622470330  -10.1881224239206603 103.8697811063649681 1.0484165951396478 7.9999999999999982 187
3.5408407469428593  -10.1894693582692675 103.8955270265279012 1.0482918433340380 7.9999999999999982 188
3.5596309226680751  -10.1907844414035544 103.9206715738505267 1.0481699812847025 8.0000000000000000 189
3.5784216784287373  -10.1920685006736385 103.9452301242070433 1.0480509519466972 8.0000000000000000 190
3.5972130034327710  -10.1933223402291357 103.9692176320512829 1.0479346991726828 8.0000000000000000 191
3.6160048870866324  -10.1945467417174171 103.9926486426585654 1.0478211677076819 7.9999999999999982 192
3.6347973189920109  -10.1957424649592632 104.0155373039936677 1.0477103031834334 7.9999999999999982 193
3.6535902889425702  -10.1969102486025491 104.0378973782130458 1.0476020521123717 7.9999999999999982 194
3.6723837869207268  -10.1980508107549444 104.0597422528165623 1.0474963618812563 8.0000000000000000 195
