 # inv_tmp, energy, phys_var, phys_doublon, phys_num, step_i
0.020652  7.158579 88.777774 1.944483 8.000000 1
0.040978  6.386200 78.037927 1.896135 8.000000 2
0.060992  5.626428 68.474612 1.848798 8.000000 3
0.080712  4.882040 60.083912 1.802691 8.000000 4
0.100155  4.155216 52.839901 1.758001 8.000000 5
0.119341  3.447598 46.698982 1.714887 8.000000 6
0.138286  2.760382 41.604202 1.673484 8.000000 7
0.157008  2.094407 37.489181 1.633908 8.000000 8
0.175525  1.450240 34.281470 1.596256 8.000000 9
0.193852  0.828257 31.905264 1.560604 8.000000 10
0.212005  0.228694 30.283521 1.527012 8.000000 11
0.229999  -0.348302 29.339540 1.495519 8.000000 12
0.247849  -0.902645 28.998146 1.466144 8.000000 13
0.265568  -1.434294 29.186544 1.438884 8.000000 14
0.283170  -1.943242 29.834971 1.413717 8.000000 15
0.300668  -2.429520 30.877180 1.390598 8.000000 16
0.318074  -2.893201 32.250829 1.369465 8.000000 17
0.335400  -3.334407 33.897783 1.350238 8.000000 18
0.352657  -3.753320 35.764350 1.332824 8.000000 19
0.369856  -4.150190 37.801449 1.317119 8.000000 20
0.387006  -4.525340 39.964712 1.303008 8.000000 21
0.404118  -4.879172 42.214513 1.290375 8.000000 22
0.421198  -5.212170 44.515923 1.279099 8.000000 23
0.438257  -5.524893 46.838593 1.269062 8.000000 24
0.455299  -5.817975 49.156574 1.260147 8.000000 25
0.472332  -6.092116 51.448069 1.252242 8.000000 26
0.489361  -6.348071 53.695146 1.245241 8.000000 27
0.506390  -6.586645 55.883411 1.239044 8.000000 28
0.523425  -6.808674 58.001661 1.233561 8.000000 29
0.540467  -7.015019 60.041523 1.228708 8.000000 30
0.557521  -7.206553 61.997096 1.224409 8.000000 31
0.574588  -7.384151 63.864608 1.220595 8.000000 32
0.591670  -7.548679 65.642089 1.217206 8.000000 33
0.608768  -7.700990 67.329060 1.214187 8.000000 34
0.625883  -7.841909 68.926266 1.211491 8.000000 35
0.643017  -7.972238 70.435423 1.209076 8.000000 36
0.660168  -8.092742 71.859003 1.206904 8.000000 37
0.677337  -8.204150 73.200046 1.204944 8.000000 38
0.694524  -8.307155 74.462003 1.203167 8.000000 39
0.711729  -8.402407 75.648597 1.201550 8.000000 40
0.728950  -8.490518 76.763716 1.200070 8.000000 41
0.746189  -8.572059 77.811321 1.198710 8.000000 42
0.763443  -8.647561 78.795375 1.197453 8.000000 43
0.780713  -8.717519 79.719783 1.196285 8.000000 44
0.797997  -8.782390 80.588355 1.195196 8.000000 45
0.815295  -8.842595 81.404767 1.194173 8.000000 46
0.832606  -8.898523 82.172544 1.193208 8.000000 47
0.849930  -8.950533 82.895039 1.192294 8.000000 48
0.867265  -8.998953 83.575430 1.191422 8.000000 49
0.884611  -9.044083 84.216710 1.190588 8.000000 50
0.901967  -9.086200 84.821691 1.189785 8.000000 51
0.919332  -9.125556 85.393002 1.189010 8.000000 52
0.936707  -9.162382 85.933098 1.188258 8.000000 53
0.954090  -9.196889 86.444263 1.187525 8.000000 54
0.971480  -9.229270 86.928620 1.186809 8.000000 55
0.988878  -9.259699 87.388136 1.186106 8.000000 56
1.006282  -9.288338 87.824632 1.185415 8.000000 57
1.023692  -9.315333 88.239793 1.184732 8.000000 58
1.041108  -9.340817 88.635174 1.184057 8.000000 59
1.058529  -9.364911 89.012212 1.183387 8.000000 60
1.075954  -9.387728 89.372230 1.182721 8.000000 61
1.093384  -9.409366 89.716448 1.182057 8.000000 62
1.110818  -9.429920 90.045990 1.181395 8.000000 63
1.128256  -9.449474 90.361892 1.180733 8.000000 64
1.145696  -9.468103 90.665105 1.180070 8.000000 65
1.163140  -9.485879 90.956507 1.179406 8.000000 66
1.180587  -9.502865 91.236904 1.178740 8.000000 67
1.198036  -9.519120 91.507040 1.178072 8.000000 68
1.215487  -9.534697 91.767596 1.177400 8.000000 69
1.232941  -9.549645 92.019203 1.176724 8.000000 70
1.250396  -9.564008 92.262440 1.176044 8.000000 71
1.267853  -9.577829 92.497838 1.175359 8.000000 72
1.285311  -9.591143 92.725889 1.174670 8.000000 73
1.302771  -9.603985 92.947045 1.173976 8.000000 74
1.320232  -9.616388 93.161722 1.173276 8.000000 75
1.337694  -9.628378 93.370304 1.172571 8.000000 76
1.355157  -9.639983 93.573144 1.171861 8.000000 77
1.372620  -9.651228 93.770569 1.171145 8.000000 78
1.390085  -9.662133 93.962880 1.170424 8.000000 79
1.407550  -9.672720 94.150355 1.169697 8.000000 80
1.425015  -9.683008 94.333250 1.168965 8.000000 81
1.442481  -9.693013 94.511802 1.168226 8.000000 82
1.459947  -9.702752 94.686230 1.167483 8.000000 83
1.477414  -9.712239 94.856738 1.166734 8.000000 84
1.494880  -9.721488 95.023511 1.165980 8.000000 85
1.512347  -9.730511 95.186725 1.165220 8.000000 86
1.529814  -9.739320 95.346540 1.164455 8.000000 87
1.547281  -9.747925 95.503105 1.163686 8.000000 88
1.564748  -9.756336 95.656559 1.162911 8.000000 89
1.582215  -9.764562 95.807028 1.162132 8.000000 90
1.599682  -9.772612 95.954634 1.161349 8.000000 91
1.617149  -9.780494 96.099487 1.160561 8.000000 92
1.634616  -9.788213 96.241689 1.159769 8.000000 93
1.652082  -9.795779 96.381337 1.158973 8.000000 94
1.669549  -9.803195 96.518521 1.158174 8.000000 95
1.687015  -9.810469 96.653323 1.157370 8.000000 96
1.704481  -9.817605 96.785821 1.156564 8.000000 97
1.721947  -9.824610 96.916089 1.155754 8.000000 98
1.739413  -9.831486 97.044194 1.154942 8.000000 99
1.756879  -9.838239 97.170201 1.154127 8.000000 100
1.774344  -9.844873 97.294167 1.153309 8.000000 101
1.791809  -9.851391 97.416150 1.152490 8.000000 102
1.809274  -9.857797 97.536202 1.151668 8.000000 103
1.826739  -9.864095 97.654373 1.150844 8.000000 104
1.844204  -9.870287 97.770709 1.150019 8.000000 105
1.861668  -9.876376 97.885253 1.149192 8.000000 106
1.879132  -9.882366 97.998048 1.148365 8.000000 107
1.896596  -9.888258 98.109132 1.147536 8.000000 108
1.914059  -9.894056 98.218542 1.146707 8.000000 109
1.931523  -9.899761 98.326314 1.145877 8.000000 110
1.948986  -9.905376 98.432480 1.145046 8.000000 111
1.966449  -9.910903 98.537072 1.144216 8.000000 112
1.983912  -9.916343 98.640120 1.143386 8.000000 113
2.001375  -9.921699 98.741653 1.142556 8.000000 114
2.018837  -9.926973 98.841698 1.141726 8.000000 115
2.036299  -9.932165 98.940281 1.140898 8.000000 116
2.053762  -9.937278 99.037427 1.140070 8.000000 117
2.071224  -9.942313 99.133161 1.139243 8.000000 118
2.088685  -9.947271 99.227504 1.138418 8.000000 119
2.106147  -9.952155 99.320480 1.137594 8.000000 120
2.123609  -9.956965 99.412110 1.136771 8.000000 121
2.141070  -9.961702 99.502413 1.135950 8.000000 122
2.158532  -9.966369 99.591411 1.135132 8.000000 123
2.175993  -9.970965 99.679121 1.134315 8.000000 124
2.193454  -9.975493 99.765564 1.133501 8.000000 125
2.210915  -9.979952 99.850756 1.132689 8.000000 126
2.228376  -9.984346 99.934716 1.131879 8.000000 127
2.245837  -9.988673 100.017460 1.131073 8.000000 128
2.263298  -9.992936 100.099004 1.130269 8.000000 129
2.280759  -9.997135 100.179366 1.129468 8.000000 130
2.298220  -10.001271 100.258561 1.128671 8.000000 131
2.315681  -10.005346 100.336604 1.127876 8.000000 132
2.333142  -10.009360 100.413511 1.127085 8.000000 133
2.350603  -10.013313 100.489296 1.126298 8.000000 134
2.368064  -10.017208 100.563974 1.125514 8.000000 135
2.385525  -10.021044 100.637558 1.124734 8.000000 136
2.402986  -10.024823 100.710064 1.123958 8.000000 137
2.420447  -10.028545 100.781504 1.123186 8.000000 138
2.437908  -10.032210 100.851892 1.122418 8.000000 139
2.455369  -10.035821 100.921242 1.121653 8.000000 140
2.472830  -10.039377 100.989566 1.120894 8.000000 141
2.490291  -10.042880 101.056878 1.120138 8.000000 142
2.507753  -10.046329 101.123190 1.119387 8.000000 143
2.525214  -10.049726 101.188514 1.118641 8.000000 144
2.542676  -10.053072 101.252864 1.117899 8.000000 145
2.560138  -10.056367 101.316251 1.117161 8.000000 146
2.577600  -10.059611 101.378688 1.116429 8.000000 147
2.595062  -10.062806 101.440186 1.115701 8.000000 148
2.612524  -10.065952 101.500758 1.114978 8.000000 149
2.629986  -10.069050 101.560414 1.114260 8.000000 150
2.647448  -10.072100 101.619168 1.113547 8.000000 151
2.664911  -10.075104 101.677029 1.112839 8.000000 152
2.682374  -10.078061 101.734010 1.112136 8.000000 153
2.699837  -10.080972 101.790121 1.111438 8.000000 154
2.717300  -10.083838 101.845375 1.110745 8.000000 155
2.734763  -10.086660 101.899781 1.110057 8.000000 156
2.752227  -10.089438 101.953351 1.109375 8.000000 157
2.769690  -10.092172 102.006095 1.108698 8.000000 158
2.787154  -10.094864 102.058025 1.108026 8.000000 159
2.804619  -10.097513 102.109151 1.107359 8.000000 160
2.822083  -10.100121 102.159483 1.106698 8.000000 161
2.839547  -10.102688 102.209032 1.106042 8.000000 162
2.857012  -10.105215 102.257809 1.105391 8.000000 163
2.874477  -10.107702 102.305823 1.104746 8.000000 164
2.891943  -10.110149 102.353084 1.104107 8.000000 165
2.909408  -10.112558 102.399603 1.103472 8.000000 166
2.926874  -10.114928 102.445390 1.102844 8.000000 167
2.944340  -10.117260 102.490455 1.102220 8.000000 168
2.961806  -10.119556 102.534807 1.101602 8.000000 169
2.979273  -10.121814 102.578456 1.100990 8.000000 170
2.996739  -10.124037 102.621411 1.100383 8.000000 171
3.014206  -10.126224 102.663683 1.099781 8.000000 172
3.031674  -10.128375 102.705281 1.099185 8.000000 173
3.049141  -10.130492 102.746213 1.098594 8.000000 174
3.066609  -10.132575 102.786490 1.098009 8.000000 175
3.084077  -10.134624 102.826120 1.097429 8.000000 176
3.101546  -10.136640 102.865112 1.096854 8.000000 177
3.119014  -10.138623 102.903476 1.096285 8.000000 178
3.136483  -10.140574 102.941221 1.095722 8.000000 179
3.153952  -10.142493 102.978355 1.095163 8.000000 180
3.171422  -10.144381 103.014886 1.094610 8.000000 181
3.188892  -10.146238 103.050824 1.094063 8.000000 182
3.206362  -10.148065 103.086177 1.093521 8.000000 183
3.223832  -10.149861 103.120954 1.092984 8.000000 184
3.241303  -10.151628 103.155163 1.092452 8.000000 185
3.258774  -10.153366 103.188812 1.091926 8.000000 186
3.276245  -10.155075 103.221909 1.091405 8.000000 187
3.293717  -10.156757 103.254463 1.090889 8.000000 188
3.311188  -10.158410 103.286481 1.090378 8.000000 189
3.328660  -10.160036 103.317972 1.089873 8.000000 190
3.346133  -10.161635 103.348943 1.089372 8.000000 191
3.363606  -10.163207 103.379402 1.088877 8.000000 192
3.381079  -10.164753 103.409357 1.088387 8.000000 193
3.398552  -10.166273 103.438815 1.087902 8.000000 194
3.416025  -10.167768 103.467784 1.087422 8.000000 195
3.433499  -10.169238 103.496271 1.086947 8.000000 196
3.450973  -10.170684 103.524283 1.086476 8.000000 197
3.468448  -10.172105 103.551829 1.086011 8.000000 198
3.485923  -10.173502 103.578914 1.085551 8.000000 199
3.503398  -10.174876 103.605546 1.085096 8.000000 200
3.520873  -10.176227 103.631732 1.084645 8.000000 201
3.538349  -10.177555 103.657479 1.084199 8.000000 202
3.555825  -10.178861 103.682793 1.083758 8.000000 203
3.573301  -10.180144 103.707682 1.083322 8.000000 204
3.590777  -10.181406 103.732151 1.082891 8.000000 205
3.608254  -10.182647 103.756208 1.082464 8.000000 206
3.625731  -10.183866 103.779859 1.082041 8.000000 207
3.643209  -10.185065 103.803110 1.081624 8.000000 208
3.660686  -10.186243 103.825968 1.081211 8.000000 209
3.678164  -10.187402 103.848439 1.080802 8.000000 210
3.695642  -10.188540 103.870529 1.080398 8.000000 211
3.713121  -10.189659 103.892243 1.079998 8.000000 212
3.730600  -10.190760 103.913589 1.079603 8.000000 213
3.748079  -10.191841 103.934572 1.079212 8.000000 214
3.765558  -10.192904 103.955197 1.078826 8.000000 215
3.783038  -10.193949 103.975470 1.078443 8.000000 216
3.800517  -10.194975 103.995398 1.078065 8.000000 217
3.817998  -10.195985 104.014985 1.077691 8.000000 218
3.835478  -10.196977 104.034238 1.077322 8.000000 219
3.852959  -10.197951 104.053161 1.076956 8.000000 220
3.870440  -10.198910 104.071760 1.076595 8.000000 221
3.887921  -10.199851 104.090040 1.076237 8.000000 222
3.905403  -10.200777 104.108006 1.075884 8.000000 223
3.922884  -10.201686 104.125664 1.075535 8.000000 224
3.940366  -10.202580 104.143018 1.075189 8.000000 225
3.957849  -10.203459 104.160074 1.074848 8.000000 226
3.975331  -10.204322 104.176837 1.074510 8.000000 227
3.992814  -10.205170 104.193310 1.074177 8.000000 228
4.010297  -10.206004 104.209500 1.073847 8.000000 229
4.027780  -10.206823 104.225410 1.073520 8.000000 230
4.045264  -10.207628 104.241046 1.073198 8.000000 231
4.062748  -10.208419 104.256411 1.072879 8.000000 232
4.080232  -10.209197 104.271511 1.072564 8.000000 233
4.097716  -10.209961 104.286350 1.072252 8.000000 234
4.115201  -10.210711 104.300932 1.071944 8.000000 235
4.132686  -10.211449 104.315261 1.071640 8.000000 236
4.150171  -10.212174 104.329342 1.071339 8.000000 237
4.167656  -10.212886 104.343179 1.071041 8.000000 238
4.185141  -10.213586 104.356775 1.070747 8.000000 239
4.202627  -10.214273 104.370136 1.070456 8.000000 240
4.220113  -10.214949 104.383264 1.070169 8.000000 241
4.237599  -10.215613 104.396164 1.069885 8.000000 242
4.255086  -10.216265 104.408840 1.069604 8.000000 243
4.272572  -10.216906 104.421296 1.069326 8.000000 244
4.290059  -10.217536 104.433534 1.069052 8.000000 245
4.307546  -10.218155 104.445559 1.068781 8.000000 246
4.325034  -10.218763 104.457375 1.068513 8.000000 247
4.342521  -10.219360 104.468985 1.068248 8.000000 248
4.360009  -10.219947 104.480393 1.067986 8.000000 249
4.377497  -10.220524 104.491601 1.067727 8.000000 250
4.394985  -10.221090 104.502614 1.067471 8.000000 251
4.412474  -10.221647 104.513434 1.067218 8.000000 252
4.429962  -10.222194 104.524066 1.066968 8.000000 253
4.447451  -10.222731 104.534511 1.066721 8.000000 254
4.464940  -10.223259 104.544774 1.066477 8.000000 255
4.482429  -10.223778 104.554858 1.066236 8.000000 256
4.499919  -10.224287 104.564765 1.065997 8.000000 257
4.517408  -10.224788 104.574499 1.065761 8.000000 258
4.534898  -10.225280 104.584062 1.065528 8.000000 259
4.552388  -10.225763 104.593458 1.065298 8.000000 260
4.569878  -10.226238 104.602689 1.065070 8.000000 261
4.587369  -10.226704 104.611759 1.064845 8.000000 262
4.604859  -10.227162 104.620670 1.064623 8.000000 263
4.622350  -10.227612 104.629424 1.064403 8.000000 264
4.639841  -10.228055 104.638025 1.064186 8.000000 265
4.657332  -10.228489 104.646475 1.063971 8.000000 266
4.674823  -10.228916 104.654777 1.063759 8.000000 267
4.692315  -10.229335 104.662933 1.063549 8.000000 268
4.709806  -10.229747 104.670946 1.063341 8.000000 269
4.727298  -10.230152 104.678819 1.063137 8.000000 270
4.744790  -10.230550 104.686553 1.062934 8.000000 271
4.762282  -10.230940 104.694151 1.062734 8.000000 272
4.779775  -10.231324 104.701616 1.062536 8.000000 273
4.797267  -10.231701 104.708950 1.062340 8.000000 274
4.814760  -10.232071 104.716155 1.062147 8.000000 275
4.832253  -10.232435 104.723233 1.061956 8.000000 276
4.849746  -10.232793 104.730187 1.061767 8.000000 277
4.867239  -10.233144 104.737019 1.061580 8.000000 278
4.884732  -10.233489 104.743730 1.061396 8.000000 279
4.902226  -10.233827 104.750324 1.061213 8.000000 280
4.919719  -10.234160 104.756801 1.061033 8.000000 281
4.937213  -10.234487 104.763165 1.060855 8.000000 282
4.954707  -10.234809 104.769416 1.060679 8.000000 283
4.972201  -10.235124 104.775558 1.060504 8.000000 284
4.989695  -10.235434 104.781592 1.060332 8.000000 285
5.007190  -10.235739 104.787519 1.060162 8.000000 286
5.024684  -10.236038 104.793343 1.059994 8.000000 287
5.042179  -10.236332 104.799063 1.059828 8.000000 288
5.059673  -10.236621 104.804683 1.059664 8.000000 289
5.077168  -10.236905 104.810205 1.059501 8.000000 290
5.094663  -10.237183 104.815629 1.059341 8.000000 291
5.112159  -10.237457 104.820957 1.059182 8.000000 292
5.129654  -10.237726 104.826192 1.059025 8.000000 293
5.147149  -10.237990 104.831335 1.058870 8.000000 294
5.164645  -10.238250 104.836387 1.058717 8.000000 295
5.182141  -10.238505 104.841350 1.058565 8.000000 296
5.199636  -10.238755 104.846226 1.058415 8.000000 297
5.217132  -10.239001 104.851016 1.058267 8.000000 298
5.234629  -10.239243 104.855722 1.058121 8.000000 299
5.252125  -10.239480 104.860344 1.057976 8.000000 300
5.269621  -10.239714 104.864886 1.057833 8.000000 301
5.287117  -10.239943 104.869348 1.057692 8.000000 302
5.304614  -10.240168 104.873731 1.057552 8.000000 303
5.322111  -10.240389 104.878037 1.057414 8.000000 304
5.339608  -10.240606 104.882267 1.057277 8.000000 305
5.357104  -10.240820 104.886422 1.057142 8.000000 306
5.374601  -10.241030 104.890505 1.057009 8.000000 307
5.392099  -10.241236 104.894516 1.056877 8.000000 308
5.409596  -10.241438 104.898456 1.056746 8.000000 309
5.427093  -10.241637 104.902327 1.056617 8.000000 310
5.444591  -10.241832 104.906130 1.056490 8.000000 311
5.462088  -10.242024 104.909866 1.056364 8.000000 312
5.479586  -10.242212 104.913536 1.056239 8.000000 313
5.497084  -10.242397 104.917141 1.056116 8.000000 314
5.514581  -10.242579 104.920683 1.055994 8.000000 315
5.532079  -10.242758 104.924163 1.055873 8.000000 316
5.549577  -10.242934 104.927582 1.055754 8.000000 317
5.567076  -10.243106 104.930941 1.055637 8.000000 318
5.584574  -10.243275 104.934240 1.055520 8.000000 319
5.602072  -10.243442 104.937482 1.055405 8.000000 320
5.619571  -10.243605 104.940666 1.055291 8.000000 321
5.637069  -10.243766 104.943795 1.055179 8.000000 322
5.654568  -10.243924 104.946869 1.055067 8.000000 323
5.672066  -10.244079 104.949888 1.054957 8.000000 324
5.689565  -10.244231 104.952855 1.054849 8.000000 325
5.707064  -10.244381 104.955769 1.054741 8.000000 326
5.724563  -10.244528 104.958633 1.054635 8.000000 327
5.742062  -10.244672 104.961446 1.054530 8.000000 328
5.759561  -10.244814 104.964210 1.054426 8.000000 329
5.777060  -10.244953 104.966925 1.054323 8.000000 330
5.794560  -10.245090 104.969592 1.054221 8.000000 331
5.812059  -10.245225 104.972213 1.054120 8.000000 332
5.829559  -10.245357 104.974788 1.054021 8.000000 333
5.847058  -10.245487 104.977317 1.053923 8.000000 334
5.864558  -10.245614 104.979802 1.053825 8.000000 335
5.882057  -10.245740 104.982244 1.053729 8.000000 336
5.899557  -10.245863 104.984643 1.053634 8.000000 337
5.917057  -10.245984 104.986999 1.053540 8.000000 338
5.934557  -10.246103 104.989315 1.053447 8.000000 339
5.952057  -10.246219 104.991590 1.053355 8.000000 340
5.969557  -10.246334 104.993825 1.053264 8.000000 341
5.987057  -10.246447 104.996021 1.053174 8.000000 342
6.004557  -10.246557 104.998178 1.053085 8.000000 343
6.022058  -10.246666 105.000298 1.052997 8.000000 344
6.039558  -10.246773 105.002380 1.052910 8.000000 345
6.057058  -10.246878 105.004426 1.052824 8.000000 346
6.074559  -10.246981 105.006437 1.052739 8.000000 347
6.092059  -10.247082 105.008412 1.052655 8.000000 348
6.109560  -10.247182 105.010352 1.052572 8.000000 349
6.127061  -10.247280 105.012259 1.052490 8.000000 350
6.144561  -10.247376 105.014132 1.052408 8.000000 351
6.162062  -10.247470 105.015973 1.052328 8.000000 352
6.179563  -10.247563 105.017781 1.052248 8.000000 353
6.197064  -10.247654 105.019558 1.052169 8.000000 354
6.214565  -10.247744 105.021304 1.052091 8.000000 355
6.232066  -10.247832 105.023019 1.052014 8.000000 356
6.249567  -10.247918 105.024705 1.051938 8.000000 357
6.267068  -10.248003 105.026361 1.051863 8.000000 358
6.284569  -10.248087 105.027988 1.051788 8.000000 359
6.302070  -10.248169 105.029587 1.051714 8.000000 360
6.319572  -10.248249 105.031157 1.051641 8.000000 361
6.337073  -10.248329 105.032701 1.051569 8.000000 362
6.354574  -10.248406 105.034217 1.051498 8.000000 363
6.372076  -10.248483 105.035708 1.051427 8.000000 364
6.389577  -10.248558 105.037172 1.051357 8.000000 365
6.407079  -10.248632 105.038610 1.051288 8.000000 366
6.424581  -10.248704 105.040024 1.051220 8.000000 367
6.442082  -10.248775 105.041413 1.051152 8.000000 368
6.459584  -10.248845 105.042778 1.051085 8.000000 369
6.477086  -10.248914 105.044119 1.051019 8.000000 370
6.494587  -10.248982 105.045437 1.050954 8.000000 371
6.512089  -10.249048 105.046732 1.050889 8.000000 372
6.529591  -10.249113 105.048005 1.050825 8.000000 373
6.547093  -10.249178 105.049255 1.050761 8.000000 374
6.564595  -10.249241 105.050484 1.050699 8.000000 375
6.582097  -10.249302 105.051691 1.050637 8.000000 376
