 # inv_tmp, energy, phys_var, phys_doublon, phys_num, step_i
0.0224834027005027  7.0454931292369309 85.1861829963399657 1.9459026863214741 8.0000000000000000 1
0.0445690013940679  6.2515229221087862 73.9670362157220609 1.8956489058458468 8.0000000000000000 2
0.0662837872010150  5.4801269908710806 64.1015917713373256 1.8466780988450036 7.9999999999999982 3
0.0876558027180663  4.7339371503905543 55.5428761364675267 1.7992032920520735 8.0000000000000018 4
0.1087131496366787  4.0148074688280424 48.2248034492366600 1.7533920533563003 8.0000000000000000 5
0.1294831892969170  3.3238768278800870 42.0676343276939804 1.7093698305571796 8.0000000000000000 6
0.1499919531450677  2.6616594660940316 36.9830926767544454 1.6672244477169873 8.0000000000000036 7
0.1702637540525882  2.0281497431438678 32.8788210381949568 1.6270111348592986 8.0000000000000000 8
0.1903209723587683  1.4229296072072066 29.6620043002168359 1.5887576038012994 8.0000000000000000 9
0.2101839822840025  0.8452704023096478 27.2421200638698551 1.5524688371508364 8.0000000000000000 10
0.2298711831820155  0.2942238541484772 25.5328681530983559 1.5181313975615403 8.0000000000000000 11
0.2493991034386772  -0.2313002295983482 24.4533893178450299 1.4857171735479076 7.9999999999999982 12
0.2687825503353438  -0.7324700489721758 23.9289091176450732 1.4551865525797878 8.0000000000000000 13
0.2880347851427855  -1.2104809706222066 23.8909456095975514 1.4264910561331252 8.0000000000000000 14
0.3071677080736366  -1.6665164061066360 24.2772074177724519 1.3995754928640243 8.0000000000000018 15
0.3261920420668354  -2.1017188440278689 25.0312892270250664 1.3743796933269332 8.0000000000000000 16
0.3451175076745273  -2.5171694971344345 26.1022498799264504 1.3508398892569242 7.9999999999999991 17
0.3639529837459701  -2.9138751645104817 27.4441372655610110 1.3288897967172175 8.0000000000000000 18
0.3827066503950257  -3.2927610763408603 29.0155057427162966 1.3084614576889333 8.0000000000000000 19
0.4013861121179587  -3.6546686404657365 30.7789565627281512 1.2894858898255379 8.0000000000000036 20
0.4199985000568501  -4.0003571305968180 32.7007196555989879 1.2718935891800183 7.9999999999999982 21
0.4385505533747144  -4.3305084474599038 34.7502859151745014 1.2556149255108546 8.0000000000000000 22
0.4570486805594788  -4.6457341561315637 36.9000923509041598 1.2405804640808986 8.0000000000000000 23
0.4754990022058934  -4.9465840671012833 39.1252577445866194 1.2267212416560906 8.0000000000000000 24
0.4939073774186096  -5.2335556948416659 41.4033633796919389 1.2139690178649833 8.0000000000000000 25
0.5122794164136473  -5.5071040020313111 43.7142716681678323 1.2022565165224790 8.0000000000000000 26
0.5306204821535201  -5.7676509222586292 46.0399748004002163 1.1915176653458053 8.0000000000000000 27
0.5489356839302066  -6.0155942478682327 48.3644656395646209 1.1816878370735837 8.0000000000000000 28
0.5672298657210332  -6.2513155689949578 50.6736237516803172 1.1727040906325155 8.0000000000000000 29
0.5855075919093388  -6.4751870498214350 52.9551105115402478 1.1645054078505783 8.0000000000000018 30
0.6037731326178954  -6.6875769234292779 55.1982684811088831 1.1570329193271636 7.9999999999999982 31
0.6220304504868356  -6.8888536725333003 57.3940215762852688 1.1502301123539456 7.9999999999999991 32
0.6402831902781203  -7.0793889362166871 59.5347738045625974 1.1440430140562825 8.0000000000000000 33
0.6585346722408195  -7.2595592402355438 61.6143054851698082 1.1384203439563043 8.0000000000000000 34
0.6767878897548827  -7.4297466896939062 63.6276668001743673 1.1333136316862287 8.0000000000000000 35
0.6950455114070485  -7.5903387883814375 65.5710692431393625 1.1286772973543990 8.0000000000000018 36
0.7133098873542404  -7.7417275603394149 67.4417760283883325 1.1244686938705628 7.9999999999999982 37
0.7315830596026691  -7.8843081485189694 69.2379928142761969 1.1206481122019911 8.0000000000000000 38
0.7498667756739270  -8.0184770553397939 70.9587602062122613 1.1171787519417249 8.0000000000000000 39
0.7681625050366803  -8.1446301732469379 72.6038494746817804 1.1140266606591342 8.0000000000000000 40
0.7864714576450896  -8.2631607325336294 74.1736627875177703 1.1111606462495878 8.0000000000000036 41
0.8047946039320110  -8.3744572709589349 75.6691390500008936 1.1085521669175429 7.9999999999999982 42
0.8231326956452594  -8.4789017068311399 77.0916662027086801 1.1061752035527352 7.9999999999999982 43
0.8414862869782360  -8.5768675755924839 78.4430005714915808 1.1040061191435062 8.0000000000000000 44
0.8598557555227461  -8.6687184704425739 79.7251936164927884 1.1020235095715636 8.0000000000000018 45
0.8782413226542225  -8.7548067107084311 80.9405262017315295 1.1002080497045965 7.9999999999999991 46
0.8966430730418465  -8.8354722477323939 82.0914503121037740 1.0985423381981967 8.0000000000000000 47
0.9150609730538805  -8.9110418069893420 83.1805379849382120 1.0970107438795957 7.9999999999999982 48
0.9334948878990597  -8.9818282567787353 84.2104370992703082 1.0955992560472010 7.9999999999999982 49
0.9519445974064673  -9.0481301878762270 85.1838335760692758 1.0942953405072173 8.0000000000000000 50
0.9704098103982650  -9.1102316846305040 86.1034194834731466 1.0930878026992021 8.0000000000000000 51
0.9888901776520329  -9.1684022657924906 86.9718665084309066 1.0919666588465853 8.0000000000000000 52
1.0073853034828084  -9.2228969725176775 87.7918042454542302 1.0909230157107834 7.9999999999999973 53
1.0258947560000802  -9.2739565811676368 88.5658027599102837 1.0899489592290941 8.0000000000000000 54
1.0444180761130113  -9.3218079194728904 89.2963589032246148 1.0890374520744253 8.0000000000000018 55
1.0629547853691172  -9.3666642660697281 89.9858858867640947 1.0881822399846721 7.9999999999999991 56
1.0815043927185854  -9.4087258151928239 90.6367056568288660 1.0873777665652782 7.9999999999999982 57
1.1000664002993756  -9.4481801902425016 91.2510436524674162 1.0866190961641704 7.9999999999999982 58
1.1186403083380849  -9.4852029919317360 91.8310255686380401 1.0859018443474360 8.0000000000000000 59
1.1372256192590666  -9.5199583686685294 92.3786757879599207 1.0852221154609072 8.0000000000000018 60
1.1558218410901195  -9.5525995986847256 92.8959171837458371 1.0845764467417975 7.9999999999999982 61
1.1744284902477571  -9.5832696751430113 93.3845720343528285 1.0839617584408006 8.0000000000000000 62
1.1930450937790498  -9.6121018870180368 93.8463638235939754 1.0833753094245009 7.9999999999999982 63
1.2116711911306699  -9.6392203899449918 94.2829197337191971 1.0828146577470057 8.0000000000000036 64
1.2303063355092989  -9.6647407624582087 94.6957736661625944 1.0822776257054110 7.9999999999999982 65
1.2489500948911993  -9.6887705441096976 95.0863696508873772 1.0817622689238848 8.0000000000000018 66
1.2676020527326293  -9.7114097528715106 95.4560655278173300 1.0812668490436410 8.0000000000000000 67
1.2862618084269883  -9.7327513800000389 95.8061368037137555 1.0807898096297761 7.9999999999999982 68
1.3049289775491988  -9.7528818611870189 96.1377806051192323 1.0803297549394317 7.9999999999999982 69
1.3236031919228548  -9.7718815233559724 96.4521196628882223 1.0798854312284829 8.0000000000000000 70
1.3422840995411529  -9.7898250068978392 96.7502062765826452 1.0794557103052271 8.0000000000000036 71
1.3609713643685248  -9.8067816634880813 97.0330262178620444 1.0790395750690474 8.0000000000000018 72
1.3796646660462262  -9.8228159299023616 97.3015025411634014 1.0786361067994950 7.9999999999999991 73
1.3983636995218578  -9.8379876784599123 97.5564992776575366 1.0782444739866193 8.0000000000000036 74
1.4170681746199119  -9.8523525448824856 97.7988249948703867 1.0778639225165501 8.0000000000000000 75
1.4357778155678629  -9.8659622344719473 98.0292362096574550 1.0774937670474742 7.9999999999999982 76
1.4544923604900977  -9.8788648075875880 98.2484406465565030 1.0771333834301648 8.0000000000000018 77
1.4732115608800129  -9.8911049454529500 98.4571003370757865 1.0767822020443929 8.0000000000000000 78
1.4919351810589094  -9.9027241973465703 98.6558345583132450 1.0764397019378835 8.0000000000000000 79
1.5106629976288379  -9.9137612102359611 98.8452226115558403 1.0761054056681374 8.0000000000000036 80
1.5293947989252821  -9.9242519419045347 99.0258064432775171 1.0757788747596164 7.9999999999999982 81
1.5481303844744638  -9.9342298585995845 99.1980931123122218 1.0754597056995530 7.9999999999999982 82
1.5668695644591335  -9.9437261181988781 99.3625571079981142 1.0751475264051460 8.0000000000000036 83
1.5856121591958943  -9.9527697398569686 99.5196425248316814 1.0748419931033337 8.0000000000000000 84
1.6043579986264451  -9.9613877610506947 99.6697650996829623 1.0745427875716880 7.9999999999999973 85
1.6231069218245500  -9.9696053828993296 99.8133141179497727 1.0742496146954739 8.0000000000000000 86
1.6418587765200539  -9.9774461045887328 99.9506541952047201 1.0739622003016218 8.0000000000000036 87
1.6606134186408721  -9.9849318476825797 100.0821269409512837 1.0736802892353279 8.0000000000000036 88
1.6793707118735366  -9.9920830710569746 100.2080525110638547 1.0734036436493772 8.0000000000000036 89
1.6981305272426093  -9.9989188771492419 100.3287310553801035 1.0731320414800787 8.0000000000000000 90
1.7168927427090368  -10.0054571101671268 100.4444440667501794 1.0728652750870529 8.0000000000000018 91
1.7356572427873536  -10.0117144468615606 100.5554556376375785 1.0726031500369939 8.0000000000000036 92
1.7544239181814671  -10.0177064804250335 100.6620136301342541 1.0723454840140836 8.0000000000000000 93
1.7731926654386587  -10.0234477980382906 100.7643507649948731 1.0720921058419357 8.0000000000000036 94
1.7919633866213371  -10.0289520525506184 100.8626856350251444 1.0718428546038525 8.0000000000000000 95
1.8107359889960057  -10.0342320287441513 100.9572236478879859 1.0715975788498924 7.9999999999999947 96
1.8295103847388563  -10.0392997045990988 101.0481579031111607 1.0713561358806620 8.0000000000000000 97
1.8482864906573706  -10.0441663079459573 101.1356700078085282 1.0711183910990378 8.0000000000000000 98
1.8670642279272738  -10.0488423688617416 101.2199308353583547 1.0708842174221374 7.9999999999999973 99
1.8858435218441860  -10.0533377681399099 101.3011012310194019 1.0706534947467905 7.9999999999999982 100
1.9046243015893016  -10.0576617821385597 101.3793326682146301 1.0704261094626188 8.0000000000000053 101
1.9234065000084311  -10.0618231242879705 101.4547678589711239 1.0702019540075622 8.0000000000000018 102
1.9421900534037546  -10.0658299835167853 101.5275413217735405 1.0699809264613163 8.0000000000000000 103
1.9609749013376372  -10.0696900598356613 101.5977799098677110 1.0697629301726876 7.9999999999999964 104
1.9797609864478833  -10.0734105972989845 101.6656033028461366 1.0695478734173833 8.0000000000000000 105
1.9985482542738158  -10.0769984145473899 101.7311244641489338 1.0693356690831295 8.0000000000000000 106
2.0173366530925945  -10.0804599331183145 101.7944500669308638 1.0691262343794274 7.9999999999999991 107
2.0361261337652086  -10.0838012036967442 101.8556808905698148 1.0689194905695201 7.9999999999999982 108
2.0549166495915876  -10.0870279304648438 101.9149121899328065 1.0687153627224688 7.9999999999999982 109
2.0737081561743320  -10.0901454936965003 101.9722340393604441 1.0685137794834445 8.0000000000000018 110
2.0925006112905407  -10.0931589707314178 102.0277316531914806 1.0683146728605764 8.0000000000000000 111
2.1112939747712813  -10.0960731554525296 102.0814856845167071 1.0681179780268732 8.0000000000000000 112
2.1300882083882460  -10.0988925763808304 102.1335725037256736 1.0679236331358926 8.0000000000000000 113
2.1488832757471639  -10.1016215134927112 102.1840644582992468 1.0677315791499851 8.0000000000000000 114
2.1676791421875725  -10.1042640138564277 102.2330301151913119 1.0675417596800592 8.0000000000000018 115
2.1864757746885530  -10.1068239061768868 102.2805344870451734 1.0673541208359221 8.0000000000000000 116
2.2052731417800859  -10.1093048143307520 102.3266392433989722 1.0671686110863490 7.9999999999999982 117
2.2240712134596659  -10.1117101699675125 102.3714029079485357 1.0669851811281206 8.0000000000000036 118
2.2428699611138674  -10.1140432242460570 102.4148810428566918 1.0668037837633331 8.0000000000000018 119
2.2616693574445539  -10.1163070587711790 102.4571264210281072 1.0666243737843770 8.0000000000000036 120
2.2804693763994424  -10.1185045957888580 102.4981891871952371 1.0664469078659955 8.0000000000000000 121
2.2992699931067575  -10.1206386076951738 102.5381170086054112 1.0662713444639345 8.0000000000000000 122
2.3180711838137213  -10.1227117259089248 102.5769552160344773 1.0660976437197036 7.9999999999999982 123
2.3368729258286431  -10.1247264491544868 102.6147469358039217 1.0659257673710330 7.9999999999999991 124
2.3556751974663821  -10.1266851511976093 102.6515332134252958 1.0657556786676277 8.0000000000000018 125
2.3744779779969831  -10.1285900880737465 102.6873531294521058 1.0655873422918749 8.0000000000000018 126
2.3932812475972729  -10.1304434048453231 102.7222439080753276 1.0654207242841705 8.0000000000000000 127
2.4120849873052532  -10.1322471419216171 102.7562410189606510 1.0652557919725680 8.0000000000000000 128
2.4308891789770990  -10.1340032409723300 102.7893782727883831 1.0650925139064666 7.9999999999999982 129
2.4496938052466151  -10.1357135504636275 102.8216879109240267 1.0649308597940941 7.9999999999999973 130
2.4684988494869895  -10.1373798308431713 102.8532006896159032 1.0647708004435372 7.9999999999999991 131
2.4873042957747056  -10.1390037593986833 102.8839459590881233 1.0646123077071061 7.9999999999999982 132
2.5061101288554815  -10.1405869348127453 102.9139517378707751 1.0644553544288313 7.9999999999999982 133
2.5249163341121075  -10.1421308814348485 102.9432447826831947 1.0642999143948952 7.9999999999999964 134
2.5437228975340713  -10.1436370532901314 102.9718506541656069 1.0641459622868332 8.0000000000000000 135
2.5625298056888552  -10.1451068378427625 102.9997937787319415 1.0639934736373318 8.0000000000000000 136
2.5813370456948066  -10.1465415595306965 103.0270975067981851 1.0638424247884768 7.9999999999999982 137
2.6001446051954873  -10.1479424830871761 103.0537841676214157 1.0636927928523028 8.0000000000000000 138
2.6189524723354070  -10.1493108166633270 103.0798751209689783 1.0635445556735161 8.0000000000000036 139
2.6377606357370653  -10.1506477147650820 103.1053908058225801 1.0633976917942569 7.9999999999999991 140
2.6565690844792118  -10.1519542810168080 103.1303507863058684 1.0632521804207991 7.9999999999999991 141
2.6753778080762665  -10.1532315707629088 103.1547737950121473 1.0631080013920542 8.0000000000000018 142
2.6941867964588133  -10.1544805935181728 103.1786777738966236 1.0629651351497980 7.9999999999999982 143
2.7129960399551205  -10.1557023152765922 103.2020799128868589 1.0628235627105143 8.0000000000000000 144
2.7318055292736130  -10.1568976606878003 103.2249966863520427 1.0626832656387561 8.0000000000000018 145
2.7506152554862506  -10.1580675151096678 103.2474438875654243 1.0625442260219518 8.0000000000000000 146
2.7694252100127499  -10.1592127265449594 103.2694366612828674 1.0624064264465707 8.0000000000000000 147
2.7882353846056129  -10.1603341074692821 103.2909895345530771 1.0622698499755641 7.9999999999999982 148
2.8070457713358987  -10.1614324365573410 103.3121164458668204 1.0621344801270238 8.0000000000000018 149
2.8258563625797124  -10.1625084603136990 103.3328307727456377 1.0620003008539762 8.0000000000000018 150
2.8446671510053583  -10.1635628946140741 103.3531453578641077 1.0618672965252633 8.0000000000000000 151
2.8634781295611265  -10.1645964261626141 103.3730725337926657 1.0617354519074338 8.0000000000000000 152
2.8822892914636697  -10.1656097138703885 103.3926241464427846 1.0616047521476035 8.0000000000000018 153
2.9011006301869462  -10.1666033901597430 103.4118115772910471 1.0614751827572178 8.0000000000000000 154
2.9199121394516871  -10.1675780621991851 103.4306457644542547 1.0613467295966776 8.0000000000000018 155
2.9387238132153688  -10.1685343130728043 103.4491372226803634 1.0612193788607731 8.0000000000000000 156
2.9575356456626540  -10.1694727028882177 103.4672960623204858 1.0610931170648827 8.0000000000000000 157
2.9763476311962820  -10.1703937698266316 103.4851320073379100 1.0609679310318949 8.0000000000000018 158
2.9951597644283794  -10.1712980311384822 103.5026544124106920 1.0608438078798135 7.9999999999999964 159
3.0139720401721686  -10.1721859840877933 103.5198722791785428 1.0607207350100096 7.9999999999999982 160
3.0327844534340573  -10.1730581068481882 103.5367942716816856 1.0605987000960788 7.9999999999999982 161
3.0515969994060845  -10.1739148593534132 103.5534287310376556 1.0604776910732767 8.0000000000000000 162
3.0704096734587036  -10.1747566841049490 103.5697836893977808 1.0603576961284982 8.0000000000000036 163
3.0892224711338869  -10.1755840069390917 103.5858668832227920 1.0602387036907686 8.0000000000000018 164
3.1080353881385352  -10.1763972377559266 103.6016857659159598 1.0601207024222234 8.0000000000000000 165
3.1268484203381730  -10.1771967712121185 103.6172475198470408 1.0600036812095399 8.0000000000000018 166
3.1456615637509233  -10.1779829873797851 103.6325590678016226 1.0598876291558101 7.9999999999999982 167
3.1644748145417307  -10.1787562523731090 103.6476270838854674 1.0597725355728156 7.9999999999999982 168
3.1832881690168433  -10.1795169189445716 103.6624580039137413 1.0596583899736922 8.0000000000000000 169
3.2021016236185207  -10.1802653270524708 103.6770580353116458 1.0595451820659583 7.9999999999999982 170
3.2209151749199640  -10.1810018044012391 103.6914331665532956 1.0594329017448920 8.0000000000000000 171
3.2397288196204634  -10.1817266669559849 103.7055891761614532 1.0593215390872275 7.9999999999999982 172
3.2585425545407403  -10.1824402194328059 103.7195316412928605 1.0592110843451641 7.9999999999999982 173
3.2773563766184819  -10.1831427557659140 103.7332659459285367 1.0591015279406650 8.0000000000000018 174
3.2961702829040620  -10.1838345595530164 103.7467972886910559 1.0589928604600325 8.0000000000000000 175
3.3149842705564283  -10.1845159044799694 103.7601306903067098 1.0588850726487384 7.9999999999999991 176
3.3337983368391604  -10.1851870547257999 103.7732710007310999 1.0587781554065061 7.9999999999999982 177
3.3526124791166811  -10.1858482653491595 103.7862229059549293 1.0586720997826187 8.0000000000000000 178
3.3714266948506224  -10.1864997826571066 103.7989909345058663 1.0585668969714519 7.9999999999999982 179
3.3902409815963273  -10.1871418445571837 103.8115794636623264 1.0584625383082102 8.0000000000000000 180
3.4090553369994954  -10.1877746808935346 103.8239927253921877 1.0583590152648601 8.0000000000000000 181
3.4278697587929541  -10.1883985137680071 103.8362348120311225 1.0582563194462500 8.0000000000000036 182
3.4466842447935551  -10.1890135578468559 103.8483096817125784 1.0581544425864033 8.0000000000000000 183
3.4654987928991932  -10.1896200206538836 103.8602211635621160 1.0580533765449782 7.9999999999999982 184
3.4843134010859291  -10.1902181028506078 103.8719729626665185 1.0579531133038846 7.9999999999999964 185
3.5031280674052350  -10.1908079985040789 103.8835686648293546 1.0578536449640479 8.0000000000000000 186
3.5219427899813316  -10.1913898953430824 103.8950117411229428 1.0577549637423114 7.9999999999999982 187
3.5407575670086286  -10.1919639750031212 103.9063055522464509 1.0576570619684771 8.0000000000000000 188
3.5595723967492634  -10.1925304132608563 103.9174533526987432 1.0575599320824653 8.0000000000000000 189
3.5783872775307253  -10.1930893802584350 103.9284582947758793 1.0574635666315966 8.0000000000000000 190
3.5972022077435732  -10.1936410407181874 103.9393234323997177 1.0573679582679854 7.9999999999999982 191
3.6160171858392287  -10.1941855541482553 103.9500517247874143 1.0572730997460407 7.9999999999999964 192
3.6348322103278554  -10.1947230750394109 103.9606460399676848 1.0571789839200649 8.0000000000000000 193
3.6536472797763166  -10.1952537530536080 103.9711091581512505 1.0570856037419503 8.0000000000000018 194
