 # inv_tmp, energy, phys_var, phys_doublon, phys_num, step_i
0.0206452107985333  7.1252323109199143 87.7061966422278800 1.9515702758367492 7.9999999999999929 1
0.0409693961198260  6.3661469575746708 77.0316843583103292 1.9067056907222717 7.9999999999999991 2
0.0609896692028494  5.6226833425802329 67.5125335746625694 1.8627863926243058 7.9999999999999947 3
0.0807248314630801  4.8979039657848551 59.1249210763015967 1.8200015293720797 7.9999999999999911 4
0.1001948387261448  4.1944598430637594 51.8277971480893029 1.7785257797091365 8.0000000000000000 5
0.1194203016318873  3.5145730163204711 45.5659793471142081 1.7385163329891196 8.0000000000000053 6
0.1384220367554623  2.8600346581192539 40.2734626111659253 1.7001100568939544 7.9999999999999982 7
0.1572206765231985  2.2322150379556236 35.8767083998622596 1.6634211095522122 7.9999999999999973 8
0.1758363398029220  1.6320820816990171 32.2977241968464881 1.6285392105511349 7.9999999999999964 9
0.1942883613519521  1.0602260432361688 29.4568008613506365 1.5955287188518477 7.9999999999999964 10
0.2125950766434584  0.5168885971144130 27.2748296732166011 1.5644285857772675 8.0000000000000107 11
0.2307736581828332  0.0019952494503792 25.6751676286966806 1.5352531698142102 8.0000000000000036 12
0.2488399995166909  -0.4848097190904307 24.5850559910823740 1.5079938275673495 8.0000000000000000 13
0.2668086432059388  -0.9441264853925097 23.9366229945578617 1.4826211398087550 8.0000000000000036 14
0.2846927488473141  -1.3767618650854572 23.6675180251504784 1.4590875976101001 8.0000000000000000 15
0.3025040967888555  -1.7836913274455366 23.7212332408605349 1.4373305617031402 8.0000000000000036 16
0.3202531226354551  -2.1660218023924935 24.0471712341926214 1.4172753159557370 7.9999999999999973 17
0.3379489771593877  -2.5249562303638289 24.6005156340213347 1.3988380584749545 8.0000000000000018 18
0.3555996059616741  -2.8617607076189420 25.3419569046379110 1.3819287057093161 7.9999999999999947 19
0.3732118432491571  -3.1777349072384919 26.2373191909525687 1.3664534205282233 8.0000000000000036 20
0.3907915144044673  -3.4741862396996877 27.2571268040226258 1.3523168100518141 8.0000000000000000 21
0.4083435425830486  -3.7524079887985771 28.3761415448168890 1.3394237697662479 7.9999999999999982 22
0.4258720552948080  -4.0136614461747335 29.5728950327799751 1.3276809753506640 8.0000000000000000 23
0.4433804877320854  -4.2591618894248819 30.8292338712765215 1.3169980420293146 8.0000000000000018 24
0.4608716804137087  -4.4900681142237167 32.1298900289715164 1.3072883834071001 8.0000000000000036 25
0.4783479694679225  -4.7074751416647791 33.4620843118899884 1.2984698084742792 8.0000000000000036 26
0.4958112685365359  -4.9124096743291172 34.8151672258686204 1.2904648978730446 8.0000000000000000 27
0.5132631418293622  -5.1058278613304005 36.1802988061176407 1.2832011997511039 8.0000000000000000 28
0.5307048682878198  -5.2886149454814655 37.5501670093789812 1.2766112826372151 8.0000000000000000 29
0.5481374971360614  -5.4615863966454912 38.9187429010035757 1.2706326786405993 7.9999999999999947 30
0.5655618953202926  -5.6254901771410264 40.2810700011478389 1.2652077455821296 7.9999999999999956 31
0.5829787874781596  -5.7810098320218408 41.6330846679322804 1.2602834719005593 8.0000000000000036 32
0.6003887891568264  -5.9287681448699905 42.9714641922507496 1.2558112436664923 8.0000000000000036 33
0.6177924340261659  -6.0693311454829777 44.2934992770066742 1.2517465889718997 8.0000000000000071 34
0.6351901958258347  -6.2032122976809454 45.5969877073166288 1.2480489114360442 8.0000000000000000 35
0.6525825057530992  -6.3308767324522579 46.8801462370491038 1.2446812216022380 7.9999999999999964 36
0.6699697659509407  -6.4527454234684622 48.1415379831766330 1.2416098725711053 7.9999999999999991 37
0.6873523596999230  -6.5691992287322218 49.3800129056464243 1.2388043042757395 8.0000000000000053 38
0.7047306588574418  -6.6805827441351999 50.5946592380043967 1.2362367992901184 8.0000000000000000 39
0.7221050290277409  -6.7872079324996175 51.7847640105016609 1.2338822519083599 8.0000000000000000 40
0.7394758328877488  -6.8893575058151573 52.9497810653028012 1.2317179513751184 7.9999999999999964 41
0.7568434320387827  -6.9872880494200071 54.0893051985980833 1.2297233795285196 7.9999999999999973 42
0.7742081877033000  -7.0812328853305742 55.2030512752145555 1.2278800226853099 8.0000000000000000 43
0.7915704605395022  -7.1714046782680345 56.2908373476395525 1.2261711973103571 7.9999999999999885 44
0.8089306098047816  -7.2579977925666732 57.3525709742001837 1.2245818888333053 7.9999999999999947 45
0.8262889920616602  -7.3411904114228799 58.3882380720350511 1.2230986028752768 8.0000000000000036 46
0.8436459595867379  -7.4211464321433311 59.3978937613749025 1.2217092281052162 8.0000000000000018 47
0.8610018586140027  -7.4980171524088792 60.3816547605159784 1.2204029099409290 7.9999999999999982 48
0.8783570275183250  -7.5719427632807834 61.3396929777505804 1.2191699343307945 7.9999999999999885 49
0.8957117950227583  -7.6430536648891465 62.2722300193413076 1.2180016208885103 7.9999999999999991 50
0.9130664784941031  -7.7114716205833869 63.1795323931807502 1.2168902246978650 7.9999999999999982 51
0.9304213823747557  -7.7773107648882664 64.0619072377315177 1.2158288461524773 8.0000000000000036 52
0.9477767967849190  -7.8406784799721265 64.9196984466543370 1.2148113482432177 7.9999999999999973 53
0.9651329963174977  -7.9016761545591976 65.7532830925695748 1.2138322807517190 7.9999999999999991 54
0.9824902390382599  -7.9603998383503489 66.5630680798072234 1.2128868108506150 7.9999999999999991 55
0.9998487656958445  -8.0169408040961336 67.3494869768536262 1.2119706596495368 8.0000000000000000 56
1.0172087991397700  -8.0713860285195675 68.1129969953890253 1.2110800442602061 8.0000000000000000 57
1.0345705439395427  -8.1238186023385488 68.8540760951420907 1.2102116249845325 8.0000000000000071 58
1.0519341861940876  -8.1743180787056744 69.5732202029451088 1.2093624572566675 7.9999999999999956 59
1.0692998935179163  -8.2229607684791013 70.2709405409586481 1.2085299479940534 8.0000000000000000 60
1.0866678151884746  -8.2698199898742626 70.9477610635482421 1.2077118160339384 8.0000000000000107 61
1.1040380824379330  -8.3149662792280008 71.6042160051820105 1.2069060563513174 8.0000000000000036 62
1.1214108088720889  -8.3584675688389005 72.2408475433345814 1.2061109077718748 7.9999999999999982 63
1.1387860909989838  -8.4003893371351666 72.8582035810367472 1.2053248239098591 8.0000000000000053 64
1.1561640088501766  -8.4407947357633564 73.4568356536566114 1.2045464470761402 8.0000000000000071 65
1.1735446266782612  -8.4797446975905242 74.0372969639486200 1.2037745849161496 8.0000000000000018 66
1.1909279937151129  -8.5172980290651594 74.6001405485161797 1.2030081895512030 8.0000000000000107 67
1.2083141449764221  -8.5535114898897096 75.1459175777442709 1.2022463390100200 7.9999999999999973 68
1.2257031020992382  -8.5884398625165037 75.6751757900872803 1.2014882207501569 7.9999999999999938 69
1.2430948742005072  -8.6221360135850986 76.1884580603793893 1.2007331170814697 8.0000000000000142 70
1.2604894587458568  -8.6546509490726535 76.6863011006921766 1.1999803923159440 8.0000000000000000 71
1.2778868424191308  -8.6860338646243154 77.1692342911859015 1.1992294814800006 7.9999999999999956 72
1.2952870019844414  -8.7163321922639962 77.6377786374259244 1.1984798804366952 8.0000000000000071 73
1.3126899051336494  -8.7455916444574342 78.0924458498119805 1.1977311372764341 8.0000000000000000 74
1.3300955113133239  -8.7738562563010163 78.5337375400637399 1.1969828448453685 7.9999999999999982 75
1.3475037725262562  -8.8011684264418513 78.9621445291285937 1.1962346342908454 8.0000000000000036 76
1.3649146341035567  -8.8275689571923337 79.3781462604576689 1.1954861695131074 8.0000000000000000 77
1.3823280354442360  -8.8530970941832869 79.7822103122807960 1.1947371424217128 7.9999999999999964 78
1.3997439107199343  -8.8777905658010052 80.1747920023116478 1.1939872689039519 7.9999999999999964 79
1.4171621895431743  -8.9016856225725309 80.5563340782281045 1.1932362854208782 8.0000000000000071 80
1.4345827975981083  -8.9248170765975914 80.9272664872699465 1.1924839461543819 8.0000000000000036 81
1.4520056572332614  -8.9472183410741195 81.2880062183687926 1.1917300206360806 7.9999999999999982 82
1.4694306880162304  -8.9689214699226909 81.6389572103743149 1.1909742917955692 7.9999999999999956 83
1.4868578072506846  -8.9899571974841663 81.9805103201303496 1.1902165543719743 8.0000000000000000 84
1.5042869304563293  -9.0103549782421162 82.3130433444029705 1.1894566136385518 7.9999999999999956 85
1.5217179718127685  -9.0301430265047884 82.6369210899334803 1.1886942843955268 7.9999999999999973 86
1.5391508445684015  -9.0493483559708778 82.9524954861869759 1.1879293901912364 8.0000000000000018 87
1.5565854614156738  -9.0679968190969724 83.2601057356900469 1.1871617627362494 7.9999999999999911 88
1.5740217348341077  -9.0861131461822744 83.5600784971724693 1.1863912414792313 7.9999999999999947 89
1.5914595774026423  -9.1037209840860829 83.8527280970599094 1.1856176733170092 7.9999999999999982 90
1.6088989020828699  -9.1208429344963768 84.1383567652001432 1.1848409124147978 8.0000000000000036 91
1.6263396224747788  -9.1375005916720706 84.4172548910224378 1.1840608201154921 8.0000000000000000 92
1.6437816530466349  -9.1537145795866248 84.6897012966570060 1.1832772649197549 7.9999999999999902 93
1.6612249093406217  -9.1695045884073032 84.9559635238399551 1.1824901225210511 8.0000000000000036 94
1.6786693081558270  -9.1848894102510883 85.2162981317271147 1.1816992758819920 7.9999999999999947 95
1.6961147677101382  -9.1998869741651319 85.4709510030235293 1.1809046153403553 8.0000000000000036 96
1.7135612077825533  -9.2145143802871008 85.7201576560892988 1.1801060387347877 7.9999999999999964 97
1.7310085498373633  -9.2287879331474993 85.9641435609426168 1.1793034515418663 7.9999999999999982 98
1.7484567171316028  -9.2427231740829754 86.2031244573046393 1.1784967670174311 7.9999999999999911 99
1.7659056348070890  -9.2563349127363743 86.4373066730504007 1.1776859063363951 8.0000000000000000 100
1.7833552299683235  -9.2696372576247725 86.6668874416273383 1.1768707987262002 8.0000000000000036 101
1.8008054317474331  -9.2826436457636454 86.8920552171894371 1.1760513815900873 8.0000000000000018 102
1.8182561713572840  -9.2953668713391497 87.1129899863598780 1.1752276006170583 8.0000000000000071 103
1.8357073821338161  -9.3078191134264348 87.3298635756924853 1.1743994098761477 7.9999999999999947 104
1.8531589995685780  -9.3200119627559008 87.5428399540394651 1.1735667718932121 7.9999999999999991 105
1.8706109613323880  -9.3319564475329742 87.7520755291596259 1.1727296577089183 8.0000000000000000 106
1.8880632072909658  -9.3436630583209492 87.9577194380192680 1.1718880469170956 8.0000000000000000 107
1.9055156795133252  -9.3551417719989942 88.1599138303347445 1.1710419276829425 7.9999999999999964 108
1.9229683222736642  -9.3664020748105070 88.3587941450015393 1.1701912967409136 8.0000000000000036 109
1.9404210820474161  -9.3774529845187775 88.5544893791363279 1.1693361593723570 7.9999999999999911 110
1.9578739075020892  -9.3883030716895615 88.7471223495278281 1.1684765293632164 7.9999999999999929 111
1.9753267494834572  -9.3989604801207829 88.9368099463625299 1.1676124289422294 8.0000000000000071 112
1.9927795609976235  -9.4094329464419371 89.1236633791369002 1.1667438887002699 7.9999999999999956 113
2.0102322971894337  -9.4197278189061286 89.3077884147329826 1.1658709474915652 8.0000000000000071 114
2.0276849153176713  -9.4298520753983066 89.4892856076578198 1.1649936523175410 7.9999999999999938 115
2.0451373747274242  -9.4398123406849184 89.6682505225013102 1.1641120581942770 7.9999999999999964 116
2.0625896368199923  -9.4496149029288468 89.8447739486856847 1.1632262280043997 8.0000000000000071 117
2.0800416650206475  -9.4592657294955380 90.0189421076154304 1.1623362323344499 7.9999999999999964 118
2.0974934247445436  -9.4687704820749730 90.1908368523538400 1.1614421492986924 7.9999999999999982 119
2.1149448833610465  -9.4781345311442422 90.3605358599718187 1.1605440643503211 7.9999999999999991 120
2.1323960101567132  -9.4873629697961341 90.5281128167318627 1.1596420700811101 8.0000000000000071 121
2.1498467762971436  -9.4964606269573686 90.6936375962806096 1.1587362660104485 8.0000000000000071 122
2.1672971547878834  -9.5054320800215404 90.8571764310323999 1.1578267583647561 7.9999999999999982 123
2.1847471204345652  -9.5142816669192509 91.0187920769360659 1.1569136598482139 8.0000000000000089 124
2.2021966498024366  -9.5230134976492771 91.1785439718168504 1.1559970894057250 7.9999999999999938 125
2.2196457211753970  -9.5316314652931453 91.3364883874989744 1.1550771719790491 7.9999999999999947 126
2.2370943145146955  -9.5401392565344523 91.4926785758992764 1.1541540382569129 8.0000000000000036 127
2.2545424114173644  -9.5485403617048519 91.6471649093029441 1.1532278244199881 8.0000000000000000 128
2.2719899950745113  -9.5568380843766487 91.7999950150151989 1.1522986718815280 8.0000000000000036 129
2.2894370502295374  -9.5650355505221683 91.9512139045872061 1.1513667270244061 7.9999999999999964 130
2.3068835631363602  -9.5731357172590581 92.1008640978158297 1.1504321409353513 7.9999999999999964 131
2.3243295215177211  -9.5811413811994672 92.2489857417029242 1.1494950691370132 7.9999999999999911 132
2.3417749145236084  -9.5890551864216498 92.3956167245687539 1.1485556713186038 7.9999999999999964 133
2.3592197326898732  -9.5968796320802205 92.5407927854978425 1.1476141110656830 8.0000000000000018 134
2.3766639678970676  -9.6046170796718968 92.6845476192995932 1.1466705555897452 8.0000000000000036 135
2.3941076133295489  -9.6122697599722162 92.8269129771562547 1.1457251754581541 8.0000000000000071 136
2.4115506634348867  -9.6198397796580917 92.9679187631254962 1.1447781443249669 8.0000000000000053 137
2.4289931138835938  -9.6273291276308246 93.1075931266628629 1.1438296386631677 7.9999999999999973 138
2.4464349615292229  -9.6347396810529400 93.2459625513189252 1.1428798374987914 8.0000000000000000 139
2.4638762043688356  -9.6420732111120167 93.3830519397649113 1.1419289221473681 8.0000000000000000 140
2.4813168415038720  -9.6493313885242955 93.5188846952921295 1.1409770759531508 8.0000000000000018 141
2.4987568731014469  -9.6565157887891537 93.6534827999253281 1.1400244840314877 7.9999999999999938 142
2.5161963003560599  -9.6636278972069611 93.7868668892867845 1.1390713330147357 8.0000000000000071 143
2.5336351254517782  -9.6706691136696570 93.9190563243367649 1.1381178108020289 7.9999999999999982 144
2.5510733515248556  -9.6776407572357730 94.0500692601202388 1.1371641063132791 8.0000000000000000 145
2.5685109826268362  -9.6845440704984966 94.1799227116338784 1.1362104092476393 7.9999999999999964 146
2.5859480236881347  -9.6913802237567239 94.3086326169308080 1.1352569098467604 7.9999999999999964 147
2.6033844804821031  -9.6981503189977438 94.4362138975694450 1.1343037986630660 7.9999999999999991 148
2.6208203595896014  -9.7048553936998303 94.5626805165126711 1.1333512663332919 7.9999999999999982 149
2.6382556683640650  -9.7114964244631388 94.6880455335779914 1.1323995033574950 7.9999999999999982 150
2.6556904148970957  -9.7180743304757797 94.8123211585303949 1.1314486998837319 8.0000000000000000 151
2.6731246079845605  -9.7245899768230544 94.9355188019127922 1.1304990454985817 7.9999999999999902 152
2.6905582570932220  -9.7310441776461900 95.0576491237005285 1.1295507290236713 8.0000000000000000 153
2.7079913723279025  -9.7374376991572014 95.1787220798606768 1.1286039383183273 7.9999999999999982 154
2.7254239643991749  -9.7437712625162582 95.2987469668990315 1.1276588600885145 8.0000000000000107 155
2.7428560445916110  -9.7500455465770806 95.4177324644680596 1.1267156797021205 7.9999999999999929 156
2.7602876247325621  -9.7562611905064536 95.5356866761125190 1.1257745810107362 7.9999999999999982 157
2.7777187171615063  -9.7624187962825459 95.6526171682149311 1.1248357461779366 8.0000000000000000 158
2.7951493346999463  -9.7685189310776650 95.7685310072171916 1.1238993555141974 7.9999999999999929 159
2.8125794906218715  -9.7745621295300111 95.8834347951730734 1.1229655873184539 8.0000000000000000 160
2.8300091986247899  -9.7805488959089359 95.9973347036975611 1.1220346177263383 7.9999999999999991 161
2.8474384728013318  -9.7864797061782713 96.1102365063702280 1.1211066205651452 7.9999999999999947 162
2.8648673276114272  -9.7923550099617849 96.2221456096485355 1.1201817672155072 7.9999999999999947 163
2.8822957778550706  -9.7981752324145788 96.3330670823430069 1.1192602264797973 7.9999999999999920 164
2.8997238386456634  -9.8039407760046693 96.4430056837089467 1.1183421644572384 8.0000000000000000 165
2.9171515253839528  -9.8096520222076720 96.5519658902017142 1.1174277444256955 8.0000000000000000 166
2.9345788537325563  -9.8153093331187762 96.6599519209428877 1.1165171267301297 7.9999999999999982 167
2.9520058395910835  -9.8209130529847677 96.7669677619452386 1.1156104686776591 8.0000000000000036 168
2.9694324990718619  -9.8264635096593977 96.8730171891363057 1.1147079244391629 7.9999999999999885 169
2.9868588484762548  -9.8319610159853692 96.9781037902298664 1.1138096449574126 8.0000000000000071 170
3.0042849042715938  -9.8374058711052452 97.0822309854749932 1.1129157778615806 8.0000000000000018 171
3.0217106830687053  -9.8427983617048298 97.1854020473361402 1.1120264673881519 7.9999999999999911 172
3.0391362016000518  -9.8481387631910380 97.2876201191292296 1.1111418543080545 7.9999999999999920 173
3.0565614766984819  -9.8534273408068955 97.3888882326576635 1.1102620758599739 8.0000000000000053 174
3.0739865252765886  -9.8586643506864444 97.4892093248821396 1.1093872656897275 8.0000000000000018 175
3.0914113643066727  -9.8638500408517924 97.5885862536597983 1.1085175537956244 8.0000000000000053 176
3.1088360108013244  -9.8689846521541114 97.6870218125810936 1.1076530664796373 7.9999999999999956 177
3.1262604817946071  -9.8740684191615262 97.7845187449441084 1.1067939263043409 8.0000000000000071 178
3.1436847943238608  -9.8791015709951751 97.8810797568888660 1.1059402520554236 7.9999999999999947 179
3.1611089654120907  -9.8840843321164691 97.9767075297327210 1.1050921587097182 7.9999999999999947 180
3.1785330120509916  -9.8890169230662082 98.0714047315244386 1.1042497574085421 8.0000000000000036 181
3.1959569511845514  -9.8938995611586193 98.1651740278531690 1.1034131554362707 8.0000000000000018 182
3.2133807996932613  -9.8987324611316403 98.2580180919406132 1.1025824562039799 7.9999999999999991 183
3.2308045743789311  -9.9035158357549165 98.3499396140375666 1.1017577592380088 8.0000000000000089 184
3.2482282919500896  -9.9082498963977539 98.4409413101556794 1.1009391601733041 8.0000000000000018 185
3.2656519690079753  -9.9129348535583439 98.5310259301605242 1.1001267507514121 8.0000000000000071 186
3.2830756220331145  -9.9175709173560076 98.6201962652466761 1.0993206188229270 7.9999999999999982 187
3.3004992673724791  -9.9221582979877088 98.7084551548238949 1.0985208483542985 8.0000000000000053 188
3.3179229212272134  -9.9266972061507737 98.7958054928348588 1.0977275194387841 8.0000000000000000 189
3.3353465996409364  -9.9311878534328510 98.8822502335284099 1.0969407083114515 7.9999999999999947 190
3.3527703184885964  -9.9356304526707593 98.9677923967107773 1.0961604873680226 7.9999999999999911 191
3.3701940934658898  -9.9400252182794731 99.0524350724980707 1.0953869251874371 7.9999999999999982 192
3.3876179400792203  -9.9443723665524431 99.1361814255870115 1.0946200865579570 7.9999999999999893 193
3.4050418736361983  -9.9486721159349631 99.2190346990715710 1.0938600325066887 7.9999999999999947 194
3.4224659092366769  -9.9529246872711514 99.3009982178183463 1.0931068203323093 8.0000000000000018 195
3.4398900617643022  -9.9571303040263981 99.3820753914253885 1.0923605036409054 8.0000000000000071 196
