 # inv_tmp, energy, phys_var, phys_doublon, phys_num, step_i
0.0206509481702690  7.1521466467391965 88.0170809482778225 1.9289693616466961 7.9999999999999982 1
0.0409814909589767  6.3949615692585482 77.2064440936761400 1.8805063054719895 8.0000000000000018 2
0.0610102426266309  5.6558574153087502 67.5681164465714517 1.8332714233731753 8.0000000000000000 3
0.0807574393147515  4.9379189349967039 59.0776344460025484 1.7875290429783040 7.9999999999999947 4
0.1002442309098393  4.2436358757233386 51.6916467443175733 1.7434941238786894 8.0000000000000000 5
0.1194920488280104  3.5749079733993638 45.3520384078948737 1.7013317276997093 7.9999999999999947 6
0.1385220703274516  2.9330727810704156 39.9900310578762657 1.6611588693412902 8.0000000000000071 7
0.1573547885732106  2.3189507921720129 35.5299988407159120 1.6230482022801356 7.9999999999999929 8
0.1760096884259078  1.7329023136292121 31.8928273684863264 1.5870329589040002 7.9999999999999947 9
0.1945050210563221  1.1748909545698840 28.9987230762402035 1.5531125968286588 8.0000000000000000 10
0.2128576659277930  0.6445492855164947 26.7694463578789268 1.5212586752294985 8.0000000000000071 11
0.2310830661753334  0.1412430723500521 25.1299905169999391 1.4914205825485258 8.0000000000000036 12
0.2491952225837761  -0.3358686030152450 24.0097604409173258 1.4635308420289905 8.0000000000000036 13
0.2672067318276279  -0.7877791419659412 23.3433223441639939 1.4375098216583941 7.9999999999999991 14
0.2851288559852815  -1.2155871643823204 23.0708021403938943 1.4132697617964685 7.9999999999999964 15
0.3029716122163127  -1.6204565368750030 23.1380082768294031 1.3907181025926585 7.9999999999999947 16
0.3207438735861436  -2.0035835442651506 23.4963481245356185 1.3697601431579485 7.9999999999999991 17
0.3384534741010026  -2.3661706993048552 24.1025976088986056 1.3503010966491849 8.0000000000000036 18
0.3561073129150220  -2.7094064677856022 24.9185734189243426 1.3322476226977362 7.9999999999999920 19
0.3737114542955348  -3.0344500823557574 25.9107470184170907 1.3155089243393454 7.9999999999999982 20
0.3912712212434057  -3.3424206015709998 27.0498304991301488 1.2999974941594770 7.9999999999999982 21
0.4087912816654971  -3.6343894144103048 28.3103564160739296 1.2856295867593881 7.9999999999999982 22
0.4262757267161823  -3.9113754713675215 29.6702672327884045 1.2723254842974687 7.9999999999999982 23
0.4437281414087393  -4.1743426225133007 31.1105248270191659 1.2600096105702159 7.9999999999999964 24
0.4611516678948342  -4.4241985467621046 32.6147465239704673 1.2486105380907595 7.9999999999999947 25
0.4785490619685877  -4.6617948556616682 34.1688711549131199 1.2380609226423738 7.9999999999999956 26
0.4959227434125359  -4.8879280438239894 35.7608564961156645 1.2282973912026705 7.9999999999999982 27
0.5132748408001719  -5.1033410340132166 37.3804079518298380 1.2192604020633291 8.0000000000000036 28
0.5306072313298393  -5.3087251273167766 39.0187373524480137 1.2108940903539653 7.9999999999999947 29
0.5479215762064511  -5.5047222184815521 40.6683501176311069 1.2031461078645251 8.0000000000000036 30
0.5652193520236590  -5.6919271748586517 42.3228586820709722 1.1959674628519046 8.0000000000000000 31
0.5825018785377107  -5.8708903062476274 43.9768199192292712 1.1893123632081859 7.9999999999999973 32
0.5997703431697389  -6.0421198740758237 45.6255942658033860 1.1831380647667125 7.9999999999999973 33
0.6170258225275496  -6.2060846034752064 47.2652243024618741 1.1774047254593227 8.0000000000000018 34
0.6342693012014086  -6.3632161723871699 48.8923306525483028 1.1720752653719591 7.9999999999999902 35
0.6515016880601392  -6.5139116590497386 50.5040231974286584 1.1671152323635234 7.9999999999999947 36
0.6687238302528375  -6.6585359340661867 52.0978257594458753 1.1624926727262230 7.9999999999999991 37
0.6859365251062545  -6.7974239864647474 53.6716125607228705 1.1581780063090641 7.9999999999999991 38
0.7031405300969803  -6.9308831752905657 55.2235549216385451 1.1541439055508884 8.0000000000000000 39
0.7203365710697135  -7.0591953997261081 56.7520768126380091 1.1503651779414357 7.9999999999999982 40
0.7375253488669945  -7.1826191817955953 58.2558180147997930 1.1468186515244607 8.0000000000000000 41
0.7547075445309436  -7.3013916565609893 59.7336037771323305 1.1434830631600956 7.9999999999999947 42
0.7718838232330533  -7.4157304654824907 61.1844199815181327 1.1403389493643723 8.0000000000000000 43
0.7890548370834383  -7.5258355493668656 62.6073929396390412 1.1373685396357061 7.9999999999999991 44
0.8062212269657709  -7.6318908380975348 64.0017730504325044 1.1345556522579672 7.9999999999999956 45
0.8233836235382253  -7.7340658351446390 65.3669216420973527 1.1318855926356166 7.9999999999999982 46
0.8405426475339857  -7.8325170956888233 66.7023004099120129 1.1293450542681103 8.0000000000000000 47
0.8576989094872534  -7.9273895980471742 68.0074629406334878 1.1269220225085181 7.9999999999999876 48
0.8748530090022313  -8.0188180089462975 69.2820478864974945 1.1246056812760152 7.9999999999999982 49
0.8920055336734312  -8.1069278440268384 70.5257734172699173 1.1223863229046158 8.0000000000000036 50
0.9091570577559218  -8.1918365257673500 71.7384326378024895 1.1202552613127987 8.0000000000000071 51
0.9263081406740391  -8.2736543417648960 72.9198897114793141 1.1182047486715441 8.0000000000000036 52
0.9434593254467663  -8.3524853069894647 74.0700764771462730 1.1162278957336729 7.9999999999999973 53
0.9606111370976426  -8.4284279342289192 75.1889893889052416 1.1143185959663700 7.9999999999999964 54
0.9777640811068810  -8.5015759174484646 76.2766866448403107 1.1124714536030342 8.0000000000000018 55
0.9949186419534958  -8.5720187332011726 77.3332854026378129 1.1106817157014055 7.9999999999999982 56
1.0120752817858363  -8.6398421655389885 78.3589590074695934 1.1089452082635913 8.0000000000000000 57
1.0292344392501029  -8.7051287600881651 79.3539341807530576 1.1072582764412795 8.0000000000000036 58
1.0463965284982892  -8.7679582130732499 80.3184881378187185 1.1056177288173124 8.0000000000000142 59
1.0635619383896215  -8.8284077011033659 81.2529456184118715 1.1040207857234987 7.9999999999999929 60
1.0807310318930057  -8.8865521574828179 82.1576758267040930 1.1024650315252393 7.9999999999999911 61
1.0979041456922687  -8.9424645006813961 83.0330892873894584 1.1009483707763641 7.9999999999999929 62
1.1150815899910826  -8.9962158204115248 83.8796346318641639 1.0994689881235822 8.0000000000000142 63
1.1322636485103919  -9.0478755265145523 84.6977953337177780 1.0980253118188070 8.0000000000000053 64
1.1494505786678708  -9.0975114655738469 85.4880864161591063 1.0966159806801155 7.9999999999999947 65
1.1666426119263906  -9.1451900098507259 86.2510511558078861 1.0952398143278212 8.0000000000000018 66
1.1838399542965861  -9.1909761227987126 86.9872578078292520 1.0938957865114594 8.0000000000000036 67
1.2010427869773559  -9.2349334050528711 87.6972963768854896 1.0925830013359867 8.0000000000000036 68
1.2182512671173980  -9.2771241244286777 88.3817754570793852 1.0913006721910530 7.9999999999999947 69
1.2354655286806291  -9.3176092331025551 89.0413191621774445 1.0900481031857419 8.0000000000000071 70
1.2526856833984796  -9.3564483747913680 89.6765641650772665 1.0888246728920958 7.9999999999999858 71
1.2699118217925138  -9.3936998844063311 90.2881568629182851 1.0876298202041159 7.9999999999999947 72
1.2871440142515813  -9.4294207823300074 90.8767506815129167 1.0864630321239397 8.0000000000000000 73
1.3043823121486202  -9.4636667651600490 91.4430035300498076 1.0853238332938726 7.9999999999999938 74
1.3216267489833300  -9.4964921944781189 91.9875754143280915 1.0842117771008490 7.9999999999999982 75
1.3388773415381239  -9.5279500849420220 92.5111262142292645 1.0831264381890400 7.9999999999999982 76
1.3561340910359982  -9.5580920927620081 93.0143136287505854 1.0820674062261018 7.9999999999999911 77
1.3733969842902432  -9.5869685054093363 93.4977912897408601 1.0810342807787559 8.0000000000000036 78
1.3906659948371602  -9.6146282332163899 93.9622070435306114 1.0800266671639080 7.9999999999999982 79
1.4079410840441946  -9.6411188033615840 94.4082013979442252 1.0790441731520728 7.9999999999999938 80
1.4252222021870473  -9.6664863565877805 94.8364061306985917 1.0780864064102458 7.9999999999999929 81
1.4425092894904661  -9.6907756468794233 95.2474430539710681 1.0771529725816078 7.9999999999999947 82
1.4598022771284160  -9.7140300442189833 95.6419229289067516 1.0762434739092372 7.9999999999999956 83
1.4771010881803124  -9.7362915404554560 96.0204445230388615 1.0753575083204294 7.9999999999999964 84
1.4944056385408346  -9.7576007582460349 96.3835938029974528 1.0744946688970585 8.0000000000000000 85
1.5117158377816362  -9.7779969629748571 96.7319432544616120 1.0736545436657987 8.0000000000000018 86
1.5290315899639382  -9.7975180775066519 97.0660513210376337 1.0728367156497600 8.0000000000000036 87
1.5463527944016071  -9.8162006995996087 97.3864619536301745 1.0720407631302451 7.9999999999999947 88
1.5636793463748353  -9.8340801217764167 97.6937042618606597 1.0712662600739693 8.0000000000000053 89
1.5810111377949965  -9.8511903534356442 97.9882922591806960 1.0705127766869866 8.0000000000000036 90
1.5983480578216072  -9.8675641449762157 98.2707246935224248 1.0697798800621388 7.9999999999999929 91
1.6156899934326636  -9.8832330137028226 98.5414849555582180 1.0690671348915985 8.0000000000000036 92
1.6330368299498461  -9.8982272712811010 98.8010410569638680 1.0683741042205450 8.0000000000000036 93
1.6503884515203022  -9.9125760525156696 99.0498456714163495 1.0677003502219105 7.9999999999999982 94
1.6677447415568580  -9.9263073452313186 99.2883362314408231 1.0670454349755472 8.0000000000000071 95
1.6851055831386283  -9.9394480210470952 99.5169350746135137 1.0664089212382202 7.9999999999999982 96
1.7024708593740463  -9.9520238668453231 99.7360496330466191 1.0657903731935343 8.0000000000000000 97
1.7198404537284080  -9.9640596167484574 99.9460726604852425 1.0651893571731059 7.9999999999999929 98
1.7372142503180001  -9.9755789844319747 100.1473824917747777 1.0646054423424252 7.9999999999999956 99
1.7545921341729047  -9.9866046956136554 100.3403433298487926 1.0640382013464282 8.0000000000000071 100
1.7719739914705210  -9.9971585205744304 100.5253055558014665 1.0634872109113551 7.9999999999999982 101
1.7893597097418141  -10.0072613065793661 100.7026060579817113 1.0629520524006717 7.9999999999999911 102
1.8067491780522358  -10.0169330100806242 100.8725685764159863 1.0624323123238155 8.0000000000000000 103
1.8241422871592001  -10.0261927285977226 101.0355040592220348 1.0619275827974586 8.0000000000000018 104
1.8415389296479152  -10.0350587321822289 101.1917110280019756 1.0614374619596330 7.9999999999999929 105
1.8589390000472985  -10.0435484943862754 101.3414759495172035 1.0609615543376292 7.9999999999999956 106
1.8763423949276177  -10.0516787226647573 101.4850736112360039 1.0604994711710276 8.0000000000000053 107
1.8937490129814090  -10.0594653881519971 101.6227674986213003 1.0600508306915866 8.0000000000000000 108
1.9111587550891389  -10.0669237547626995 101.7548101722717320 1.0596152583619634 7.9999999999999938 109
1.9285715243709920  -10.0740684075761777 101.8814436432640065 1.0591923870753990 8.0000000000000071 110
1.9459872262260824  -10.0809132804699733 102.0028997452530746 1.0587818573186611 7.9999999999999964 111
1.9634057683602806  -10.0874716829784141 102.1194005020942654 1.0583833173006350 7.9999999999999973 112
1.9808270608038117  -10.0937563263549688 102.2311584899071732 1.0579964230488788 7.9999999999999964 113
1.9982510159196409  -10.0997793488267877 102.3383771926862806 1.0576208384765895 7.9999999999999947 114
2.0156775484036462  -10.1055523400321707 102.4412513506908624 1.0572562354222907 8.0000000000000018 115
2.0331065752774546  -10.1110863646384832 102.5399673009900567 1.0569022936645367 8.0000000000000036 116
2.0505380158747846  -10.1163919851409005 102.6347033096497938 1.0565587009138673 8.0000000000000000 117
2.0679717918220537  -10.1214792838467726 102.7256298951595426 1.0562251527841198 7.9999999999999929 118
2.0854078270139511  -10.1263578840532631 102.8129101427875440 1.0559013527451506 7.9999999999999964 119
2.1028460475846207  -10.1310369704286085 102.8967000096356372 1.0555870120588737 7.9999999999999982 120
2.1202863818750397  -10.1355253086101431 102.9771486202478741 1.0552818497004615 8.0000000000000053 121
2.1377287603971320  -10.1398312640334254 103.0543985526762185 1.0549855922663884 7.9999999999999991 122
2.1551731157950984  -10.1439628200096141 103.1285861149830652 1.0546979738709508 7.9999999999999947 123
2.1726193828044158  -10.1479275950681149 103.1998416121900846 1.0544187360327115 8.0000000000000000 124
2.1900674982088981  -10.1517328595841789 103.2682896037422324 1.0541476275522750 7.9999999999999964 125
2.2075174007961929  -10.1553855517108449 103.3340491515845372 1.0538844043826772 8.0000000000000000 126
2.2249690313120274  -10.1588922926358265 103.3972340589792225 1.0536288294935281 7.9999999999999929 127
2.2424223324135113  -10.1622594011842899 103.4579531002249269 1.0533806727300326 8.0000000000000089 128
2.2598772486217578  -10.1654929077885505 103.5163102414508955 1.0531397106678146 8.0000000000000000 129
2.2773337262740494  -10.1685985678465212 103.5724048526944188 1.0529057264645241 7.9999999999999929 130
2.2947917134757740  -10.1715818744897746 103.6263319114595731 1.0526785097089491 8.0000000000000107 131
2.3122511600523139  -10.1744480707827023 103.6781821979937064 1.0524578562684272 8.0000000000000036 132
2.3297120175010426  -10.1772021613744172 103.7280424825095650 1.0522435681352285 7.9999999999999929 133
2.3471742389435910  -10.1798489236234229 103.7759957045924608 1.0520354532724556 7.9999999999999876 134
2.3646377790785049  -10.1823929182162267 103.8221211450381674 1.0518333254600329 8.0000000000000107 135
2.3821025941344032  -10.1848384992998238 103.8664945903668126 1.0516370041412346 8.0000000000000036 136
2.3995686418237376  -10.1871898241479339 103.9091884902650520 1.0514463142702140 7.9999999999999876 137
2.4170358812972341  -10.1894508623800508 103.9502721081991012 1.0512610861608431 8.0000000000000018 138
2.4345042730990940  -10.1916254047520880 103.9898116654442077 1.0510811553372101 7.9999999999999929 139
2.4519737791230041  -10.1937170715371401 104.0278704787829582 1.0509063623860959 8.0000000000000036 140
2.4694443625690226  -10.1957293205134487 104.0645090920999536 1.0507365528115937 8.0000000000000000 141
2.4869159879013627  -10.1976654545775318 104.0997854021200766 1.0505715768921577 7.9999999999999938 142
2.5043886208071213  -10.1995286289981308 104.1337547785150406 1.0504112895402000 8.0000000000000071 143
2.5218622281559808  -10.2013218583274607 104.1664701786039728 1.0502555501643969 8.0000000000000000 144
2.5393367779608860  -10.2030480229853708 104.1979822568771823 1.0501042225348589 7.9999999999999902 145
2.5568122393397332  -10.2047098755306287 104.2283394695451904 1.0499571746512015 7.9999999999999947 146
2.5742885824780659  -10.2063100466340231 104.2575881743300386 1.0498142786136313 7.9999999999999982 147
2.5917657785927810  -10.2078510507672107 104.2857727256993314 1.0496754104971016 8.0000000000000107 148
2.6092437998968552  -10.2093352916197837 104.3129355657367796 1.0495404502285561 8.0000000000000036 149
2.6267226195650806  -10.2107650672580181 104.3391173108406633 1.0494092814673108 8.0000000000000053 150
2.6442022117008053  -10.2121425750367969 104.3643568344302963 1.0492817914885513 8.0000000000000071 151
2.6616825513036710  -10.2134699162765319 104.3886913458388506 1.0491578710699732 7.9999999999999947 152
2.6791636142383339  -10.2147491007164586 104.4121564655612957 1.0490374143815457 8.0000000000000000 153
2.6966453772041588  -10.2159820507543913 104.4347862970204943 1.0489203188783507 8.0000000000000000 154
2.7141278177058683  -10.2171706054835809 104.4566134950084404 1.0488064851965133 7.9999999999999982 155
2.7316109140251319  -10.2183165245361440 104.4776693309534892 1.0486958170521503 8.0000000000000071 156
2.7490946451930762  -10.2194214917423949 104.4979837551582449 1.0485882211432958 8.0000000000000000 157
2.7665789909636982  -10.2204871186150079 104.5175854561468185 1.0484836070547927 8.0000000000000071 158
2.7840639317881615  -10.2215149476662717 104.5365019172542134 1.0483818871660344 7.9999999999999876 159
2.8015494487899533  -10.2225064555667799 104.5547594705875554 1.0482829765615789 7.9999999999999956 160
2.8190355237408897  -10.2234630561528554 104.5723833484738918 1.0481867929444868 7.9999999999999982 161
2.8365221390379300  -10.2243861032905023 104.5893977325224569 1.0480932565524117 8.0000000000000036 162
2.8540092776808019  -10.2252768936024854 104.6058258004027834 1.0480022900763124 8.0000000000000053 163
2.8714969232503922  -10.2261366690653741 104.6216897704516384 1.0479138185817582 8.0000000000000000 164
2.8889850598879034  -10.2269666194827806 104.6370109442070628 1.0478277694327502 8.0000000000000142 165
2.9064736722747382  -10.2277678848409277 104.6518097469692208 1.0477440722179825 8.0000000000000036 166
2.9239627456130921  -10.2285415575523633 104.6661057664806549 1.0476626586795137 7.9999999999999982 167
2.9414522656072473  -10.2292886845928752 104.6799177898128335 1.0475834626437293 8.0000000000000107 168
2.9589422184455265  -10.2300102695373081 104.6932638385449792 1.0475064199545618 7.9999999999999929 169
2.9764325907828963  -10.2307072744990943 104.7061612023184125 1.0474314684089265 8.0000000000000036 170
2.9939233697242051  -10.2313806219777792 104.7186264708373074 1.0473585476942266 8.0000000000000000 171
3.0114145428080179  -10.2320311966197881 104.7306755643956535 1.0472875993279658 7.9999999999999929 172
3.0289060979910447  -10.2326598468959880 104.7423237629972732 1.0472185665993299 8.0000000000000107 173
3.0463980236331394  -10.2332673867003798 104.7535857341346883 1.0471513945126905 8.0000000000000071 174
3.0638903084828395  -10.2338545968739698 104.7644755592930466 1.0470860297330160 8.0000000000000036 175
3.0813829416634406  -10.2344222266570437 104.7750067592386500 1.0470224205330521 7.9999999999999956 176
3.0988759126595844  -10.2349709950736578 104.7851923181484040 1.0469605167422866 8.0000000000000036 177
3.1163692113043355  -10.2355015922515129 104.7950447066369435 1.0469002696975886 8.0000000000000071 178
3.1338628277667411  -10.2360146806804000 104.8045759037326263 1.0468416321954994 8.0000000000000036 179
3.1513567525398427  -10.2365108964122200 104.8137974178538485 1.0467845584461073 7.9999999999999991 180
3.1688509764291419  -10.2369908502053057 104.8227203068310018 1.0467290040284492 7.9999999999999982 181
3.1863454905414810  -10.2374551286158795 104.8313551970195192 1.0466749258474015 8.0000000000000071 182
3.2038402862743496  -10.2379042950391543 104.8397123015490138 1.0466222820919924 8.0000000000000107 183
3.2213353553055772  -10.2383388907024795 104.8478014377481600 1.0465710321951054 7.9999999999999964 184
3.2388306895834118  -10.2387594356130265 104.8556320437834586 1.0465211367945235 8.0000000000000018 185
3.2563262813169720  -10.2391664294617932 104.8632131945493029 1.0464725576952412 8.0000000000000036 186
3.2738221229670508  -10.2395603524865386 104.8705536168462231 1.0464252578330437 7.9999999999999964 187
3.2913182072372553  -10.2399416662953975 104.8776617038799515 1.0463792012392892 8.0000000000000000 188
3.3088145270654881  -10.2403108146528723 104.8845455291115911 1.0463343530068356 8.0000000000000000 189
3.3263110756157359  -10.2406682242303191 104.8912128594919437 1.0462906792571056 7.9999999999999982 190
3.3438078462701672  -10.2410143053225688 104.8976711681073795 1.0462481471082290 8.0000000000000071 191
3.3613048326215211  -10.2413494525320594 104.9039276462652595 1.0462067246442277 7.9999999999999964 192
3.3788020284657856  -10.2416740454223198 104.9099892150462239 1.0461663808852171 7.9999999999999885 193
3.3962994277951353  -10.2419884491421698 104.9158625363448465 1.0461270857585812 7.9999999999999982 194
