 # inv_tmp, energy, phys_var, phys_doublon, phys_num, step_i
0.0206783724748794  7.2805893002628510 89.2980693860538537 1.9467512884983700 8.0000000000000071 1
0.0410399047355222  6.5338868163162820 78.4983838890672416 1.8992382494098747 7.9999999999999982 2
0.0611020245781553  5.8035811182421497 68.8526647786346189 1.8528463314996606 8.0000000000000000 3
0.0808834768339496  5.0922834533477168 60.3337000994368964 1.8077678948261395 7.9999999999999911 4
0.1004038003858667  4.4021763960277021 52.8973973949658074 1.7641704874922566 7.9999999999999964 5
0.1196828881187551  3.7350399157060128 46.4866056072026623 1.7221982102136708 8.0000000000000036 6
0.1387406238342772  3.0922801621339437 41.0347596325645725 1.6819725797856893 8.0000000000000036 7
0.1575965847753739  2.4749572917130598 36.4691789040967222 1.6435928432489344 8.0000000000000071 8
0.1762697976985893  1.8838108682753063 32.7139303120233862 1.6071358905491928 8.0000000000000018 9
0.1947785386182217  1.3192830078611981 29.6922249045758555 1.5726560244241876 7.9999999999999991 10
0.2131401696431467  0.7815403504940066 27.3283569988463384 1.5401848710793695 7.9999999999999938 11
0.2313710093876892  0.2704961891522497 25.5492172072181702 1.5097316714177984 7.9999999999999982 12
0.2494862355066031  -0.2141661531137411 24.2854222996455782 1.4812841069185758 8.0000000000000036 13
0.2674998187710487  -0.6729681112980739 23.4721091795483368 1.4548097142729017 8.0000000000000036 14
0.2854244879423774  -1.1066088136646313 23.0494407555670335 1.4302578509911630 7.9999999999999973 15
0.3032717238834686  -1.5159366334328148 22.9628700732171893 1.4075621047145799 7.9999999999999947 16
0.3210517802768083  -1.9019201534576988 23.1632066758364452 1.3866429978894939 8.0000000000000000 17
0.3387737273258623  -2.2656194864014294 23.6065261473023149 1.3674108259933027 8.0000000000000018 18
0.3564455141134441  -2.6081588781222083 24.2539602461880897 1.3497684764363314 8.0000000000000036 19
0.3740740449678295  -2.9307013894535654 25.0714010247001156 1.3336140994075376 8.0000000000000036 20
0.3916652652376308  -3.2344262504815040 26.0291479406150259 1.3188435340158868 7.9999999999999911 21
0.4092242522316864  -3.5205092563501346 27.1015223872041631 1.3053524269933663 7.9999999999999956 22
0.4267553076443336  -3.7901063584130386 28.2664694924516589 1.2930380125798513 8.0000000000000071 23
0.4442620484612375  -4.0443404208272629 29.5051626794011312 1.2818005483862944 8.0000000000000036 24
0.4617474940422621  -4.2842909709948076 30.8016225032562403 1.2715444219222256 8.0000000000000071 25
0.4792141477429483  -4.5109866745689855 32.1423578034507855 1.2621789560771666 8.0000000000000036 26
0.4966640720247054  -4.7254002083603375 33.5160342885294824 1.2536189498627908 8.0000000000000036 27
0.5140989564952875  -4.9284451805988683 34.9131733156945430 1.2457849942014074 7.9999999999999964 28
0.5315201787101379  -5.1209747497282470 36.3258818036963191 1.2386036026271687 8.0000000000000053 29
0.5489288578568177  -5.3037816125352411 37.7476128701777398 1.2320071945153286 8.0000000000000071 30
0.5663259016502262  -5.4775990632552531 39.1729558420681911 1.2259339647764969 7.9999999999999929 31
0.5837120468998033  -5.6431028619593988 40.5974536759383042 1.2203276695560852 8.0000000000000053 32
0.6010878942860165  -5.8009136889972446 42.0174454733353926 1.2151373528829224 7.9999999999999929 33
0.6184539379159180  -5.9515999997480069 43.4299316203432326 1.2103170347661840 7.9999999999999929 34
0.6358105902283795  -6.0956811286461940 44.8324590666840379 1.2058253771620326 7.9999999999999947 35
0.6531582027987367  -6.2336305224141597 46.2230243432939787 1.2016253406344621 8.0000000000000089 36
0.6704970835578674  -6.3658790092461501 47.5999920635352964 1.1976838414587312 7.9999999999999973 37
0.6878275108982226  -6.4928180333363779 48.9620268355805592 1.1939714163530990 7.9999999999999956 38
0.7051497450934291  -6.6148028028647463 50.3080367125678976 1.1904618999373715 8.0000000000000107 39
0.7224640374118735  -6.7321553147320961 51.6371265092257659 1.1871321183526389 8.0000000000000036 40
0.7397706372602249  -6.8451672314149077 52.9485595096232089 1.1839616011759038 7.9999999999999964 41
0.7570697976514164  -6.9541025947475212 54.2417262747856910 1.1809323127676179 8.0000000000000000 42
0.7743617792538647  -7.0592003686767564 55.5161194278989356 1.1780284034445947 8.0000000000000071 43
0.7916468532449276  -7.1606768084678825 56.7713134472961585 1.1752359803263328 7.9999999999999982 44
0.8089253031617794  -7.2587276578250757 58.0069486331647539 1.1725428973174103 8.0000000000000036 45
0.8261974259168109  -7.3535301782257054 59.2227185335403945 1.1699385634268553 8.0000000000000053 46
0.8434635321220393  -7.4452450167096416 60.4183602197572185 1.1674137684581449 7.9999999999999929 47
0.8607239458474815  -7.5340179196211263 61.5936468924268610 1.1649605250071433 8.0000000000000178 48
0.8779790039216355  -7.6199813005403509 62.7483823776668856 1.1625719256611109 7.9999999999999964 49
0.8952290548677270  -7.7032556710029114 63.8823971411391440 1.1602420142856382 8.0000000000000071 50
0.9124744575569257  -7.7839509426888522 64.9955455058190523 1.1579656703059633 7.9999999999999929 51
0.9297155796489351  -7.8621676096585169 66.0877038095905505 1.1557385049271001 7.9999999999999964 52
0.9469527958809996  -7.9379978189754246 67.1587692818289668 1.1535567682859864 7.9999999999999929 53
0.9641864862581647  -8.0115263377406212 68.2086594551251579 1.1514172665848601 8.0000000000000018 54
0.9814170341904197  -8.0828314241967938 69.2373119600398752 1.1493172883139564 7.9999999999999973 55
0.9986448246159262  -8.1519856101739023 70.2446845780326754 1.1472545387317457 7.9999999999999920 56
1.0158702421438255  -8.2190564017525851 71.2307554510845620 1.1452270818301258 8.0000000000000053 57
1.0330936692449473  -8.2841069046337452 72.1955233665792520 1.1432332890695491 8.0000000000000071 58
1.0503154845140850  -8.3471963803248954 73.1390080531726596 1.1412717942241570 7.9999999999999973 59
1.0675360610232651  -8.4083807388917808 74.0612504380392664 1.1393414537292070 8.0000000000000000 60
1.0847557647815924  -8.4677129736792054 74.9623128283581508 1.1374413119723985 8.0000000000000036 61
1.1019749533137404  -8.5252435430774050 75.8422789904820434 1.1355705710169655 7.9999999999999929 62
1.1191939743659864  -8.5810207040990303 76.7012541091252160 1.1337285642876689 8.0000000000000018 63
1.1364131647458171  -8.6350908022346822 77.5393646163341685 1.1319147337912077 8.0000000000000018 64
1.1536328492985455  -8.6874985217742022 78.3567578861401159 1.1301286104803048 7.9999999999999982 65
1.1708533400220922  -8.7382871005085558 79.1536017957758418 1.1283697974056781 7.9999999999999947 66
1.1880749353190534  -8.7874985124694796 79.9300841583314252 1.1266379553328021 8.0000000000000036 67
1.2052979193834172  -8.8351736221134800 80.6864120348227800 1.1249327905305526 8.0000000000000000 68
1.2225225617177848  -8.8813523131173291 81.4228109359885650 1.1232540444669916 8.0000000000000000 69
1.2397491167756873  -8.9260735947196892 82.1395239257950038 1.1216014851734937 8.0000000000000036 70
1.2569778237225440  -8.9693756883208469 82.8368106397265933 1.1199749000625168 8.0000000000000018 71
1.2742089063080071  -9.0112960968362046 83.5149462315432913 1.1183740900065220 8.0000000000000036 72
1.2914425728417978  -9.0518716590931696 84.1742202623777018 1.1167988645059825 8.0000000000000000 73
1.3086790162647224  -9.0911385913612328 84.8149355459019176 1.1152490377932764 8.0000000000000036 74
1.3259184143062834  -9.1291325179155542 85.4374069628594555 1.1137244257364094 8.0000000000000036 75
1.3431609297201921  -9.1658884923526855 86.0419602576233586 1.1122248434223541 8.0000000000000036 76
1.3604067105891007  -9.2014410112053646 86.6289308286203976 1.1107501033140641 7.9999999999999938 77
1.3776558906900218  -9.2358240212400347 87.1986625235277444 1.1093000138883080 8.0000000000000071 78
1.3949085899121207  -9.2690709216680567 87.7515064491325916 1.1078743786731966 7.9999999999999973 79
1.4121649147188913  -9.3012145623586360 88.2878198046778522 1.1064729956150108 8.0000000000000053 80
1.4294249586471099  -9.3322872390070355 88.8079647464271460 1.1050956567133312 7.9999999999999982 81
1.4466888028353879  -9.3623206860894044 89.3123072901136652 1.1037421478721865 8.0000000000000071 82
1.4639565165756272  -9.3913460683205550 89.8012162568694521 1.1024122489223687 8.0000000000000018 83
1.4812281578811659  -9.4193939712278230 90.2750622672366916 1.1011057337769774 8.0000000000000071 84
1.4985037740659339  -9.4464943913581561 90.7342167868902436 1.0998223706880417 7.9999999999999982 85
1.5157834023294381  -9.4726767265510627 91.1790512268210165 1.0985619225774530 8.0000000000000036 86
1.5330670703429288  -9.4979697666314635 91.6099360998945826 1.0973241474198887 8.0000000000000000 87
1.5503547968325935  -9.5224016848089299 92.0272402349632586 1.0961087986594769 7.9999999999999973 88
1.5676465921561238  -9.5460000300072476 92.4313300490242682 1.0949156256453245 7.9999999999999982 89
1.5849424588694667  -9.5687917202958221 92.8225688773303688 1.0937443740740251 8.0000000000000036 90
1.6022423922810196  -9.5908030375461166 93.2013163608278035 1.0925947864297660 7.9999999999999964 91
1.6195463809909465  -9.6120596233968474 93.5679278898513758 1.0914666024148250 7.9999999999999982 92
1.6368544074136926  -9.6325864765753906 93.9227541026200470 1.0903595593649884 7.9999999999999947 93
1.6541664482821237  -9.6524079515944585 94.2661404367601392 1.0892733926460214 7.9999999999999982 94
1.6714824751320561  -9.6715477588174892 94.5984267318241336 1.0882078360284668 8.0000000000000071 95
1.6888024547662503  -9.6900289658656327 94.9199468805661581 1.0871626220391453 7.9999999999999964 96
1.7061263496971963  -9.7078740003230983 95.2310285265866412 1.0861374822885173 8.0000000000000036 97
1.7234541185682823  -9.7251046536836405 95.5319928058408578 1.0851321477737088 8.0000000000000036 98
1.7407857165531397  -9.7417420864710884 95.8231541294446743 1.0841463491575682 8.0000000000000000 99
1.7581210957331554  -9.7578068344591795 96.1048200051685200 1.0831798170244511 8.0000000000000018 100
1.7754602054532964  -9.7733188159105833 96.3772908950099918 1.0822322821137562 7.9999999999999947 101
1.7928029926565530  -9.7882973397514093 96.6408601062577048 1.0813034755324415 7.9999999999999929 102
1.8101494021974036  -9.8027611145960609 96.8958137134959685 1.0803931289478472 7.9999999999999982 103
1.8274993771348256  -9.8167282585369744 97.1424305090718860 1.0795009747622757 7.9999999999999982 104
1.8448528590054427  -9.8302163096143396 97.3809819796150862 1.0786267462707826 8.0000000000000036 105
1.8622097880774837  -9.8432422368832597 97.6117323062912305 1.0777701778036162 7.9999999999999938 106
1.8795701035862566  -9.8558224519978310 97.8349383865724178 1.0769310048547598 8.0000000000000107 107
1.8969337439519134  -9.8679728212349929 98.0508498754066125 1.0761089641978836 8.0000000000000107 108
1.9143006469802655  -9.8797086778853096 98.2597092437845845 1.0753037939910710 7.9999999999999964 109
1.9316707500474719  -9.8910448349406117 98.4617518528086748 1.0745152338714765 8.0000000000000036 110
1.9490439902693990  -9.9019955980136256 98.6572060414857361 1.0737430250410382 7.9999999999999964 111
1.9664203046564614  -9.9125747784288478 98.8462932265822047 1.0729869103443310 7.9999999999999982 112
1.9837996302547549  -9.9227957064280776 99.0292280129861382 1.0722466343394268 7.9999999999999982 113
2.0011819042742691  -9.9326712444386303 99.2062183131352242 1.0715219433626615 8.0000000000000071 114
2.0185670642049605  -9.9422138003567184 99.3774654741800703 1.0708125855880335 7.9999999999999929 115
2.0359550479214343  -9.9514353408026004 99.5431644116469556 1.0701183110819363 8.0000000000000053 116
2.0533457937769901  -9.9603474043078180 99.7035037484749296 1.0694388718537671 8.0000000000000036 117
2.0707392406877143  -9.9689611143998427 99.8586659583909437 1.0687740219029938 8.0000000000000036 118
2.0881353282073229  -9.9772871925520761 100.0088275126773567 1.0681235172630550 7.9999999999999938 119
2.1055339965933899  -9.9853359709715264 100.1541590294786772 1.0674871160425394 8.0000000000000053 120
2.1229351868656110  -9.9931174051991540 100.2948254248652660 1.0668645784639004 7.9999999999999991 121
2.1403388408566602  -10.0006410865020658 100.4309860649599386 1.0662556669000516 7.9999999999999973 122
2.1577449012562422  -10.0079162540383901 100.5627949184934664 1.0656601459089927 7.9999999999999947 123
2.1751533116488440  -10.0149518067795995 100.6904007092311417 1.0650777822667075 8.0000000000000018 124
2.1925640165457092  -10.0217563151767308 100.8139470677668044 1.0645083449984309 8.0000000000000071 125
2.2099769614115017  -10.0283380325597644 100.9335726822442041 1.0639516054084397 7.9999999999999929 126
2.2273920926861033  -10.0347049062614708 101.0494114476162508 1.0634073371084332 8.0000000000000036 127
2.2448093578019770  -10.0408645884586178 101.1615926130974685 1.0628753160445441 8.0000000000000036 128
2.2622287051974701  -10.0468244467259513 101.2702409275212005 1.0623553205230762 8.0000000000000071 129
2.2796500843264393  -10.0525915742991465 101.3754767823386516 1.0618471312349440 7.9999999999999982 130
2.2970734456645321  -10.0581728000450106 101.4774163520517476 1.0613505312788614 8.0000000000000071 131
2.3144987407124433  -10.0635746981379448 101.5761717318877402 1.0608653061832523 7.9999999999999964 132
2.3319259219964432  -10.0688035974436545 101.6718510725739577 1.0603912439269132 8.0000000000000000 133
2.3493549430664538  -10.0738655906109127 101.7645587120802588 1.0599281349583809 8.0000000000000036 134
2.3667857584919227  -10.0787665428744120 101.8543953042382810 1.0594757722140120 8.0000000000000036 135
2.3842183238557353  -10.0835121005714647 101.9414579441595947 1.0590339511347528 8.0000000000000071 136
2.4016525957463757  -10.0881076993766499 102.0258402903972410 1.0586024696815604 7.9999999999999947 137
2.4190885317485415  -10.0925585722587954 102.1076326838182240 1.0581811283494904 7.9999999999999947 138
2.4365260904323938  -10.0968697571652903 102.1869222631645044 1.0577697301803921 8.0000000000000018 139
2.4539652313416149  -10.1010461044390301 102.2637930772962847 1.0573680807742192 8.0000000000000089 140
2.4714059149804184  -10.1050922839740540 102.3383261941310565 1.0569759882989378 8.0000000000000018 141
2.4888481027996696  -10.1090127921155428 102.4105998062902927 1.0565932634990136 8.0000000000000018 142
2.5062917571822294  -10.1128119583107594 102.4806893334871916 1.0562197197024585 8.0000000000000000 143
2.5237368414276551  -10.1164939515171586 102.5486675216910726 1.0558551728264562 7.9999999999999964 144
2.5411833197363491  -10.1200627863746035 102.6146045391135715 1.0554994413815406 8.0000000000000000 145
2.5586311571932723  -10.1235223291479297 102.6785680690678504 1.0551523464743353 7.9999999999999938 146
2.5760803197512936  -10.1268763034469593 102.7406233997565579 1.0548137118088694 8.0000000000000036 147
2.5935307742142690  -10.1301282957305823 102.8008335110498308 1.0544833636864543 7.9999999999999991 148
2.6109824882199120  -10.1332817606016601 102.8592591583190909 1.0541611310041652 7.9999999999999947 149
2.6284354302225306  -10.1363400258994343 102.9159589533901311 1.0538468452519105 8.0000000000000000 150
2.6458895694756852  -10.1393062975961286 102.9709894426911205 1.0535403405081298 8.0000000000000000 151
2.6633448760148166  -10.1421836645044472 103.0244051826621643 1.0532414534341379 8.0000000000000036 152
2.6808013206398966  -10.1449751028021140 103.0762588125020329 1.0529500232671312 7.9999999999999964 153
2.6982588748981429  -10.1476834803801896 103.1266011243254468 1.0526658918119054 8.0000000000000071 154
2.7157175110668361  -10.1503115610210575 103.1754811308036182 1.0523889034312741 7.9999999999999929 155
2.7331772021362566  -10.1528620084128374 103.2229461303655995 1.0521189050352879 7.9999999999999991 156
2.7506379217928041  -10.1553373900050943 103.2690417700303698 1.0518557460692073 8.0000000000000036 157
2.7680996444022852  -10.1577401807129526 103.3138121059468801 1.0515992785003374 8.0000000000000000 158
2.7855623449934219  -10.1600727664743520 103.3572996617129149 1.0513493568037260 8.0000000000000071 159
2.8030259992415871  -10.1623374476662764 103.3995454845460245 1.0511058379467626 7.9999999999999929 160
2.8204905834527740  -10.1645364423857281 103.4405891993768876 1.0508685813727556 7.9999999999999964 161
2.8379560745478427  -10.1666718895997388 103.4804690609341549 1.0506374489834722 7.9999999999999964 162
2.8554224500470209  -10.1687458521703924 103.5192220038911586 1.0504123051207415 7.9999999999999947 163
2.8728896880546904  -10.1707603197592551 103.5568836911405981 1.0501930165471303 7.9999999999999973 164
2.8903577672444665  -10.1727172116158986 103.5934885602598001 1.0499794524257464 7.9999999999999982 165
2.9078266668445574  -10.1746183792555520 103.6290698682383464 1.0497714842992127 7.9999999999999929 166
2.9252963666234351  -10.1764656090296413 103.6636597345195412 1.0495689860678599 8.0000000000000018 167
2.9427668468758030  -10.1782606245939515 103.6972891824258340 1.0493718339671685 8.0000000000000071 168
2.9602380884088637  -10.1800050892784597 103.7299881790222429 1.0491799065445317 8.0000000000000000 169
2.9777100725288972  -10.1817006083625294 103.7617856734761830 1.0489930846353579 8.0000000000000000 170
2.9951827810281397  -10.1833487312595867 103.7927096339690962 1.0488112513385617 8.0000000000000036 171
3.0126561961719678  -10.1849509536148517 103.8227870832135267 1.0486342919914973 8.0000000000000036 172
3.0301303006863862  -10.1865087193194270 103.8520441326295440 1.0484620941443648 8.0000000000000000 173
3.0476050777458110  -10.1880234224446795 103.8805060152281499 1.0482945475341441 7.9999999999999982 174
3.0650805109611587  -10.1894964090994637 103.9081971172520582 1.0481315440580798 8.0000000000000107 175
3.0825565843682212  -10.1909289792139894 103.9351410086211018 1.0479729777467612 8.0000000000000000 176
3.1000332824163346  -10.1923223882529168 103.9613604722281650 1.0478187447368712 7.9999999999999991 177
3.1175105899573361  -10.1936778488608084 103.9868775321278065 1.0476687432435736 8.0000000000000000 178
3.1349884922347986  -10.1949965324425200 104.0117134806613137 1.0475228735326434 8.0000000000000036 179
3.1524669748735499  -10.1962795706813605 104.0358889045591013 1.0473810378923301 7.9999999999999982 180
3.1699460238694535  -10.1975280569976263 104.0594237100606989 1.0472431406050262 7.9999999999999964 181
3.1874256255794706  -10.1987430479496037 104.0823371470871592 1.0471090879187339 8.0000000000000036 182
3.2049057667119714  -10.1999255645798996 104.1046478325062168 1.0469787880183918 8.0000000000000071 183
3.2223864343173108  -10.2010765937089918 104.1263737725227401 1.0468521509970892 7.9999999999999982 184
3.2398676157786523  -10.2021970891783376 104.1475323842304590 1.0467290888271916 7.9999999999999982 185
3.2573492988030428  -10.2032879730449597 104.1681405163556775 1.0466095153313992 8.0000000000000000 186
3.2748314714127198  -10.2043501367297100 104.1882144692245191 1.0464933461537858 8.0000000000000000 187
3.2923141219366614  -10.2053844421208577 104.2077700139862912 1.0463804987308329 8.0000000000000000 188
3.3097972390023593  -10.2063917226352299 104.2268224111184480 1.0462708922624802 8.0000000000000107 189
3.3272808115278223  -10.2073727842380180 104.2453864282438900 1.0461644476832215 8.0000000000000018 190
3.3447648287137910  -10.2083284064236466 104.2634763572854411 1.0460610876332854 7.9999999999999902 191
3.3622492800361701  -10.2092593431588288 104.2811060309853843 1.0459607364298873 7.9999999999999982 192
3.3797341552386677  -10.2101663237893607 104.2982888388104925 1.0458633200385983 8.0000000000000000 193
3.3972194443256378  -10.2110500539124303 104.3150377422735886 1.0457687660448562 8.0000000000000036 194
3.4147051375551132  -10.2119112162156380 104.3313652896862180 1.0456770036256147 8.0000000000000000 195
