 # inv_tmp, energy, phys_var, phys_doublon, phys_num, step_i
0.0225348265175756  7.2484847203001816 88.0048454396102073 1.9531822690698362 8.0000000000000000 1
0.0446700151297690  6.4544740273812042 76.4711657672860383 1.9040630105444347 8.0000000000000000 2
0.0664327446142670  5.6830932571248214 66.2658443765647291 1.8562292036851160 8.0000000000000000 3
0.0878520180594899  4.9377776776543030 57.3478609919681688 1.8099746970418629 8.0000000000000000 4
0.1089576195912163  4.2211961171905070 49.6562468325621822 1.7655343609510781 8.0000000000000000 5
0.1297791625556250  3.5352332092861851 43.1145887480172121 1.7230825115007151 8.0000000000000000 6
0.1503452936730524  2.8810226248582884 37.6357385868324386 1.6827351075112880 8.0000000000000000 7
0.1706830886340459  2.2590199881788084 33.1263215683044194 1.6445548836207013 8.0000000000000000 8
0.1908176462518619  1.6691016079213239 29.4907349891889119 1.6085584188030002 8.0000000000000000 9
0.2107718657198238  1.1106753185658698 26.6344493329102434 1.5747241605214315 8.0000000000000000 10
0.2305663770624747  0.5827918177382692 24.4665398780045820 1.5430005752988685 8.0000000000000000 11
0.2502195884175061  0.0842479528237823 22.9014699606578489 1.5133138121933705 8.0000000000000000 12
0.2697478137312940  -0.3863233601573795 21.8602095499482232 1.4855744910164685 8.0000000000000000 13
0.2891654486094472  -0.8303790603191381 21.2708056005437136 1.4596834248572665 7.9999999999999982 14
0.3084851683593003  -1.2494080009002666 21.0685295693449746 1.4355362382853347 8.0000000000000000 15
0.3277181290875757  -1.6448879684915849 21.1957200887209396 1.4130269450773500 7.9999999999999982 16
0.3468741590317498  -2.0182556547486770 21.6014222105742526 1.3920506082273323 8.0000000000000000 17
0.3659619325646596  -2.3708872333036446 22.2409044587983509 1.3725052302786336 8.0000000000000000 18
0.3849891233413749  -2.7040871965229480 23.0751149143017287 1.3542930241713216 8.0000000000000018 19
0.4039625359076383  -3.0190833170370435 24.0701198473872466 1.3373212029590498 8.0000000000000018 20
0.4228882169315876  -3.3170259146627279 25.1965539299217980 1.3215024078834903 8.0000000000000000 21
0.4417715482689453  -3.5989899585233482 26.4290999303036784 1.3067548731865037 8.0000000000000000 22
0.4606173245369776  -3.8659788713769752 27.7460076949549119 1.2930024056389835 8.0000000000000000 23
0.4794298179381850  -4.1189292030827582 29.1286566292313189 1.2801742386460222 7.9999999999999982 24
0.4982128328892790  -4.3587155915588713 30.5611622458798422 1.2682048055928536 8.0000000000000018 25
0.5169697526871710  -4.5861556303977160 32.0300251348398533 1.2570334648891734 8.0000000000000018 26
0.5357035800621771  -4.8020144157565969 33.5238194942576229 1.2466041996967472 7.9999999999999991 27
0.5544169730837786  -5.0070086572507888 35.0329178137447315 1.2368653081878147 8.0000000000000000 28
0.5731122775297295  -5.2018103154164628 36.5492481695092266 1.2277690949440874 7.9999999999999982 29
0.5917915565232995  -5.3870497789667855 38.0660807028345687 1.2192715703558838 8.0000000000000018 30
0.6104566179931843  -5.5633186250300017 39.5778400917768209 1.2113321622589026 8.0000000000000000 31
0.6291090403159638  -5.7311720204443963 41.0799411168085697 1.2039134422558797 8.0000000000000000 32
0.6477501963572103  -5.8911308266179816 42.5686447204413412 1.1969808679772163 8.0000000000000000 33
0.6663812760272960  -6.0436834681030422 44.0409322448350480 1.1905025417592237 7.9999999999999991 34
0.6850033074035210  -6.1892876186720001 45.4943957891863704 1.1844489857277232 8.0000000000000000 35
0.7036171764333746  -6.3283717503415140 46.9271428571357347 1.1787929329724616 8.0000000000000000 36
0.7222236452172537  -6.4613365818837174 48.3377136646180858 1.1735091343169051 8.0000000000000000 37
0.7408233688665226  -6.5885564548021982 49.7250096535405959 1.1685741800828318 8.0000000000000000 38
0.7594169109393327  -6.7103806570764650 51.0882319100588163 1.1639663361897061 8.0000000000000000 39
0.7780047574681485  -6.8271347084599379 52.4268283215703264 1.1596653938961612 8.0000000000000000 40
0.7965873296065580  -6.9391216158315956 53.7404484269143765 1.1556525324735074 8.0000000000000000 41
0.8151649949366414  -7.0466231030061461 55.0289050221419558 1.1519101940926577 8.0000000000000000 42
0.8337380774906147  -7.1499008163844957 56.2921416815274398 1.1484219702026881 8.0000000000000000 43
0.8523068665509274  -7.2491975057223037 57.5302054416876345 1.1451724986800507 8.0000000000000000 44
0.8708716243011118  -7.3447381779449046 58.7432239768394027 1.1421473710316019 8.0000000000000000 45
0.8894325924054273  -7.4367312211827805 59.9313866661796411 1.1393330489421245 7.9999999999999991 46
0.9079899975988355  -7.5253694958991266 61.0949290207411337 1.1367167894679882 8.0000000000000000 47
0.9265440563703495  -7.6108313900054565 62.2341199973742221 1.1342865781931182 8.0000000000000000 48
0.9450949788226075  -7.6932818351100440 63.3492517821657088 1.1320310696815090 7.9999999999999991 49
0.9636429717889490  -7.7728732814349550 64.4406316750280865 1.1299395345820047 8.0000000000000000 50
0.9821882412866325  -7.8497466294073517 65.5085757517477134 1.1280018127656937 8.0000000000000000 51
1.0007309943813800  -7.9240321164325316 66.5534040198315608 1.1262082719037199 8.0000000000000000 52
1.0192714405344205  -7.9958501578563537 67.5754368203885321 1.1245497709231316 7.9999999999999973 53
1.0378097924988252  -8.0653121416006108 68.5749922603669688 1.1230176278101238 8.0000000000000000 54
1.0563462668273289  -8.1325211763924976 69.5523844880769104 1.1216035912632327 8.0000000000000018 55
1.0748810840491678  -8.1975727939006529 70.5079226503699772 1.1202998157332074 8.0000000000000000 56
1.0934144685687863  -8.2605556054321649 71.4419103924324901 1.1190988394209289 8.0000000000000000 57
1.1119466483347056  -8.3215519141373431 72.3546457811507366 1.1179935648395434 7.9999999999999991 58
1.1304778543223806  -8.3806382839143154 73.2464215506919345 1.1169772415814088 7.9999999999999982 59
1.1490083198706114  -8.4378860664064526 74.1175255845479342 1.1160434509642898 7.9999999999999991 60
1.1675382799069736  -8.4933618876467616 74.9682415620307836 1.1151860922640804 8.0000000000000000 61
1.1860679700938652  -8.5471280960286471 75.7988497092850082 1.1143993702729889 8.0000000000000000 62
1.2045976259230837  -8.5992431733759584 76.6096276054670824 1.1136777839523337 8.0000000000000000 63
1.2231274817834050  -8.6497621109510909 77.4008510039970901 1.1130161159776997 8.0000000000000000 64
1.2416577700223970  -8.6987367522816328 78.1727946368506537 1.1124094230010761 7.9999999999999982 65
1.2601887200206803  -8.7462161047067681 78.9257329768567359 1.1118530264796078 7.9999999999999982 66
1.2787205572940454  -8.7922466215472905 79.6599409390105393 1.1113425039436955 8.0000000000000000 67
1.2972535026362402  -8.8368724567903030 80.3756945070018105 1.1108736805983508 7.9999999999999991 68
1.3157877713128565  -8.8801356941533562 81.0732712755849434 1.1104426211709164 8.0000000000000000 69
1.3343235723145574  -8.9220765523551435 81.7529509031606665 1.1100456219355430 8.0000000000000018 70
1.3528611076759116  -8.9627335683725065 82.4150154720735486 1.1096792028602152 7.9999999999999991 71
1.3714005718642919  -9.0021437604079235 83.0597497567185314 1.1093400998356873 7.9999999999999973 72
1.3899421512417207  -9.0403427722292093 83.6874414016562866 1.1090252569575074 7.9999999999999991 73
1.4084860236010934  -9.0773650004751794 84.2983810136170177 1.1087318188424966 8.0000000000000000 74
1.4270323577769837  -9.1132437064485643 84.8928621725726913 1.1084571229696620 7.9999999999999991 75
1.4455813133301483  -9.1480111138414806 85.4711813680299599 1.1081986920427132 8.0000000000000000 76
1.4641330403039237  -9.1816984937603721 86.0336378673795252 1.1079542263772155 7.9999999999999982 77
1.4826876790499344  -9.2143362383374754 86.5805335235738767 1.1077215963200853 8.0000000000000000 78
1.5012453601198981  -9.2459539241348399 87.1121725296295324 1.1074988347126995 8.0000000000000000 79
1.5198062042198002  -9.2765803664663729 87.6288611274956537 1.1072841294115383 8.0000000000000000 80
1.5383703222223297  -9.3062436656830609 88.1309072787282162 1.1070758158820335 8.0000000000000000 81
1.5569378152331752  -9.3349712463875711 88.6186203041841907 1.1068723698823502 8.0000000000000000 82
1.5755087747066068  -9.3627898904674449 89.0923104996305995 1.1066724002542510 8.0000000000000000 83
1.5940832826056537  -9.3897257647610886 89.5522887337670568 1.1064746418380706 8.0000000000000000 84
1.6126614116021851  -9.4158044440986188 89.9988660347101046 1.1062779485282945 8.0000000000000000 85
1.6312432253122180  -9.4410509303904782 90.4323531704991126 1.1060812864853378 8.0000000000000000 86
1.6498287785618926  -9.4654896683707364 90.8530602286705573 1.1058837275179565 7.9999999999999991 87
1.6684181176796946  -9.4891445585396870 91.2612961994253595 1.1056844426493571 8.0000000000000000 88
1.6870112808106772  -9.5120389677914865 91.6573685663905167 1.1054826958785535 8.0000000000000000 89
1.7056082982486593  -9.5341957381576652 92.0415829084626296 1.1052778381469384 8.0000000000000000 90
1.7242091927826095  -9.5556371940459730 92.4142425157226057 1.1050693015183661 8.0000000000000000 91
1.7428139800536742  -9.5763851483067004 92.7756480219357229 1.1048565935794283 8.0000000000000000 92
1.7614226689195724  -9.5964609074148619 93.1260970557011376 1.1046392920649704 7.9999999999999991 93
1.7800352618233595  -9.6158852760165470 93.4658839118954887 1.1044170397123310 7.9999999999999982 94
1.7986517551638097  -9.6346785610514143 93.7952992446664524 1.1041895393463119 7.9999999999999982 95
1.8172721396649700  -9.6528605756300578 94.1146297828776710 1.1039565491954804 7.9999999999999982 96
1.8358964007426615  -9.6704506428154762 94.4241580685845605 1.1037178784391106 7.9999999999999982 97
1.8545245188659938  -9.6874675994309651 94.7241622188320207 1.1034733829828998 8.0000000000000000 98
1.8731564699121781  -9.7039297999932401 95.0149157108099871 1.1032229614605127 8.0000000000000000 99
1.8917922255131705  -9.7198551208485355 95.2966871901787727 1.1029665514570692 7.9999999999999982 100
1.9104317533928892  -9.7352609645709602 95.5697403021819412 1.1027041259498431 8.0000000000000000 101
1.9290750176939546  -9.7501642646664273 95.8343335449995806 1.1024356899607253 8.0000000000000000 102
1.9477219792930969  -9.7645814906115618 96.0907201446568990 1.1021612774144005 7.9999999999999982 103
1.9663725961045420  -9.7785286532449724 96.3391479506873907 1.1018809481956520 8.0000000000000000 104
1.9850268233708555  -9.7920213105183098 96.5798593516600192 1.1015947853988315 8.0000000000000000 105
2.0036846139408637  -9.8050745736059852 96.8130912096087854 1.1013028927621886 8.0000000000000000 106
2.0223459185344073  -9.8177031133653152 97.0390748123500089 1.1010053922795278 8.0000000000000000 107
2.0410106859937942  -9.8299211671333495 97.2580358426378950 1.1007024219815045 7.9999999999999982 108
2.0596788635219285  -9.8417425458417931 97.4701943630874297 1.1003941338787770 8.0000000000000018 109
2.0783503969071848  -9.8531806414280929 97.6757648157852714 1.1000806920592083 8.0000000000000000 110
2.0970252307351633  -9.8642484345180996 97.8749560355133070 1.0997622709313459 8.0000000000000000 111
2.1157033085875585  -9.8749585023536088 98.0679712755198665 1.0994390536064618 8.0000000000000000 112
2.1343845732283948  -9.8853230269371632 98.2550082447966560 1.0991112304115846 8.0000000000000018 113
2.1530689667779699  -9.8953538033656425 98.4362591558447377 1.0987789975260838 7.9999999999999991 114
2.1717564308748583  -9.9050622483240804 98.6119107819466194 1.0984425557345590 8.0000000000000000 115
2.1904469068263799  -9.9144594087113678 98.7821445229983937 1.0981021092889989 8.0000000000000000 116
2.2091403357479482  -9.9235559703701046 98.9471364789961569 1.0977578648733990 7.9999999999999982 117
2.2278366586917464  -9.9323622668936657 99.1070575303146626 1.0974100306642693 8.0000000000000000 118
2.2465358167651863  -9.9408882884845635 99.2620734239596629 1.0970588154807226 8.0000000000000000 119
2.2652377512396122  -9.9491436908395805 99.4123448650232007 1.0967044280181029 8.0000000000000000 120
2.2839424036497227  -9.9571378040382363 99.5580276126146373 1.0963470761593683 7.9999999999999991 121
2.3026497158841743  -9.9648796414128427 99.6992725795899304 1.0959869663587356 8.0000000000000000 122
2.3213596302678385  -9.9723779083797091 99.8362259354438919 1.0956243030923425 8.0000000000000000 123
2.3400720896361742  -9.9796410112126637 99.9690292117781922 1.0952592883709791 8.0000000000000000 124
2.3587870374021591  -9.9866770657416009 100.0978194097998824 1.0948921213101861 8.0000000000000018 125
2.3775044176162368  -9.9934939059601753 100.2227291093481085 1.0945229977532873 8.0000000000000000 126
2.3962241750196962  -10.0000990925284494 100.3438865789887302 1.0941521099431872 8.0000000000000000 127
2.4149462550919094  -10.0064999211574737 100.4614158867542244 1.0937796462389948 8.0000000000000000 128
2.4336706040918301  -10.0127034308644820 100.5754370111451976 1.0934057908737946 7.9999999999999982 129
2.4523971690941377  -10.0187164120884908 100.6860659520447712 1.0930307237501025 8.0000000000000018 130
2.4711258980203987  -10.0245454146574797 100.7934148412308843 1.0926546202697751 8.0000000000000000 131
2.4898567396656079  -10.0301967555995493 100.8975920522040468 1.0922776511953540 8.0000000000000000 132
2.5085896437204425  -10.0356765267915229 100.9987023090771174 1.0918999825400206 7.9999999999999991 133
2.5273245607895536  -10.0409906024396580 101.0968467943023796 1.0915217754835476 8.0000000000000000 134
2.5460614424062098  -10.0461446463879316 101.1921232550371315 1.0911431863118004 8.0000000000000000 135
2.5648002410435677  -10.0511441192505622 101.2846261079735370 1.0907643663775297 8.0000000000000018 136
2.5835409101228666  -10.0559942853659940 101.3744465424805696 1.0903854620803504 8.0000000000000000 137
2.6022834040187832  -10.0607002195706503 101.4616726219278604 1.0900066148639693 8.0000000000000000 138
2.6210276780622106  -10.0652668137911974 101.5463893830792443 1.0896279612288615 8.0000000000000000 139
2.6397736885406804  -10.0696987834550207 101.6286789334625951 1.0892496327587380 8.0000000000000000 140
2.6585213926966444  -10.0740006737189134 101.7086205466381870 1.0888717561592738 8.0000000000000000 141
2.6772707487238203  -10.0781768655168040 101.7862907553033551 1.0884944533076939 8.0000000000000000 142
2.6960217157617907  -10.0822315814275854 101.8617634421838147 1.0881178413119217 8.0000000000000000 143
2.7147742538890269  -10.0861688913647320 101.9351099286751463 1.0877420325780971 8.0000000000000000 144
2.7335283241145074  -10.0899927180896825 102.0063990612091658 1.0873671348853899 8.0000000000000000 145
2.7522838883680780  -10.0937068425512866 102.0756972953287942 1.0869932514670957 8.0000000000000000 146
2.7710409094896979  -10.0973149090540346 102.1430687774659560 1.0866204810971196 8.0000000000000018 147
2.7897993512177086  -10.1008204302578708 102.2085754244234295 1.0862489181810104 8.0000000000000018 148
2.8085591781762322  -10.1042267920127937 102.2722770005696589 1.0858786528507918 8.0000000000000000 149
2.8273203558618305  -10.1075372580314848 102.3342311927623314 1.0855097710629051 8.0000000000000000 150
2.8460828506295131  -10.1107549744034610 102.3944936830205705 1.0851423546986383 8.0000000000000036 151
2.8648466296781998  -10.1138829739543272 102.4531182189728327 1.0847764816664798 8.0000000000000000 152
2.8836116610357183  -10.1169241804538785 102.5101566821104768 1.0844122260058899 7.9999999999999982 153
2.9023779135434218  -10.1198814126767207 102.5656591538803184 1.0840496579920240 8.0000000000000000 154
2.9211453568405004  -10.1227573883193536 102.6196739796543795 1.0836888442409986 7.9999999999999991 155
2.9399139613480521  -10.1255547277775584 102.6722478306166693 1.0833298478153364 8.0000000000000000 156
2.9586836982529725  -10.1282759577879240 102.7234257636087591 1.0829727283292461 8.0000000000000000 157
2.9774545394917276  -10.1309235149375141 102.7732512789788899 1.0826175420534563 8.0000000000000000 158
2.9962264577340476  -10.1334997490454910 102.8217663764803262 1.0822643420193303 8.0000000000000000 159
3.0149994263666033  -10.1360069264206238 102.8690116092657547 1.0819131781220395 8.0000000000000000 160
3.0337734194766894  -10.1384472329984838 102.9150261360254035 1.0815640972225855 8.0000000000000018 161
3.0525484118359705  -10.1408227773621427 102.9598477713177402 1.0812171432484972 8.0000000000000000 162
3.0713243788843037  -10.1431355936501593 103.0035130341415481 1.0808723572930443 7.9999999999999991 163
3.0901012967136881  -10.1453876443554929 103.0460571947981805 1.0805297777128380 7.9999999999999982 164
3.1088791420523507  -10.1475808230190374 103.0875143200933195 1.0801894402236978 8.0000000000000000 165
3.1276578922490041  -10.1497169568212833 103.1279173169269257 1.0798513779946932 8.0000000000000000 166
3.1464375252572871  -10.1517978090756760 103.1672979743202774 1.0795156217402786 8.0000000000000000 167
3.1652180196204216  -10.1538250816269979 103.2056870039277214 1.0791821998104507 7.9999999999999973 168
3.1839993544560783  -10.1558004171582077 103.2431140790811526 1.0788511382788795 8.0000000000000000 169
3.2027815094414942  -10.1577254014088840 103.2796078724136066 1.0785224610289634 8.0000000000000000 170
3.2215644647988260  -10.1596015653085914 103.3151960921087067 1.0781961898377925 8.0000000000000000 171
3.2403482012807685  -10.1614303870280960 103.3499055168206553 1.0778723444579785 8.0000000000000000 172
3.2591327001564365  -10.1632132939515500 103.3837620293095938 1.0775509426973540 8.0000000000000000 173
3.2779179431975227  -10.1649516645725200 103.4167906488355300 1.0772320004965252 8.0000000000000000 174
3.2967039126647339  -10.1666468303166937 103.4490155623538357 1.0769155320042894 8.0000000000000000 175
3.3154905912945059  -10.1683000772939884 103.4804601545531995 1.0766015496509147 8.0000000000000000 176
3.3342779622860133  -10.1699126479827697 103.5111470367768476 1.0762900642193007 7.9999999999999991 177
3.3530660092884568  -10.1714857428486987 103.5410980748665821 1.0759810849140385 8.0000000000000000 178
3.3718547163886505  -10.1730205219007335 103.5703344159676220 1.0756746194283853 7.9999999999999982 179
3.3906440680988887  -10.1745181061866994 103.5988765143321473 1.0753706740091908 8.0000000000000000 180
3.4094340493451076  -10.1759795792306953 103.6267441561567466 1.0750692535197892 8.0000000000000036 181
3.4282246454553342  -10.1774059884146695 103.6539564834901341 1.0747703615009030 7.9999999999999991 182
3.4470158421484172  -10.1787983463063014 103.6805320172446585 1.0744740002295825 7.9999999999999991 183
3.4658076255230452  -10.1801576319351952 103.7064886793439484 1.0741801707762191 7.9999999999999991 184
3.4845999820470452  -10.1814847920195746 103.7318438140400900 1.0738888730596750 8.0000000000000000 185
3.5033928985469545  -10.1827807421452530 103.7566142084300509 1.0736001059005584 8.0000000000000000 186
3.5221863621978726  -10.1840463678988851 103.7808161122021033 1.0733138670726985 8.0000000000000000 187
3.5409803605135775  -10.1852825259572111 103.8044652566405546 1.0730301533528430 8.0000000000000000 188
3.5597748813369088  -10.1864900451340752 103.8275768729171205 1.0727489605686378 7.9999999999999991 189
3.5785699128304165  -10.1876697273869077 103.8501657096959434 1.0724702836449187 8.0000000000000000 190
3.5973654434672575  -10.1888223487842247 103.8722460500779761 1.0721941166483615 7.9999999999999991 191
3.6161614620223532  -10.1899486604357534 103.8938317279103956 1.0719204528305371 8.0000000000000000 192
3.6349579575637874  -10.1910493893866025 103.9149361434845105 1.0716492846694023 7.9999999999999982 193
3.6537549194444465  -10.1921252394770292 103.9355722786467027 1.0713806039092884 8.0000000000000000 194
3.6725523372939017  -10.1931768921689976 103.9557527113433792 1.0711144015994039 8.0000000000000000 195
