 # inv_tmp, energy, phys_var, phys_doublon, phys_num, step_i
0.020645  7.125232 87.706197 1.951570 8.000000 1
0.040969  6.366147 77.031684 1.906706 8.000000 2
0.060990  5.622683 67.512534 1.862786 8.000000 3
0.080725  4.897904 59.124921 1.820002 8.000000 4
0.100195  4.194460 51.827797 1.778526 8.000000 5
0.119420  3.514573 45.565979 1.738516 8.000000 6
0.138422  2.860035 40.273463 1.700110 8.000000 7
0.157221  2.232215 35.876708 1.663421 8.000000 8
0.175836  1.632082 32.297724 1.628539 8.000000 9
0.194288  1.060226 29.456801 1.595529 8.000000 10
0.212595  0.516889 27.274830 1.564429 8.000000 11
0.230774  0.001995 25.675168 1.535253 8.000000 12
0.248840  -0.484810 24.585056 1.507994 8.000000 13
0.266809  -0.944126 23.936623 1.482621 8.000000 14
0.284693  -1.376762 23.667518 1.459088 8.000000 15
0.302504  -1.783691 23.721233 1.437331 8.000000 16
0.320253  -2.166022 24.047171 1.417275 8.000000 17
0.337949  -2.524956 24.600516 1.398838 8.000000 18
0.355600  -2.861761 25.341957 1.381929 8.000000 19
0.373212  -3.177735 26.237319 1.366453 8.000000 20
0.390792  -3.474186 27.257127 1.352317 8.000000 21
0.408344  -3.752408 28.376142 1.339424 8.000000 22
0.425872  -4.013661 29.572895 1.327681 8.000000 23
0.443380  -4.259162 30.829234 1.316998 8.000000 24
0.460872  -4.490068 32.129890 1.307288 8.000000 25
0.478348  -4.707475 33.462084 1.298470 8.000000 26
0.495811  -4.912410 34.815167 1.290465 8.000000 27
0.513263  -5.105828 36.180299 1.283201 8.000000 28
0.530705  -5.288615 37.550167 1.276611 8.000000 29
0.548137  -5.461586 38.918743 1.270633 8.000000 30
0.565562  -5.625490 40.281070 1.265208 8.000000 31
0.582979  -5.781010 41.633085 1.260283 8.000000 32
0.600389  -5.928768 42.971464 1.255811 8.000000 33
0.617792  -6.069331 44.293499 1.251747 8.000000 34
0.635190  -6.203212 45.596988 1.248049 8.000000 35
0.652583  -6.330877 46.880146 1.244681 8.000000 36
0.669970  -6.452745 48.141538 1.241610 8.000000 37
0.687352  -6.569199 49.380013 1.238804 8.000000 38
0.704731  -6.680583 50.594659 1.236237 8.000000 39
0.722105  -6.787208 51.784764 1.233882 8.000000 40
0.739476  -6.889358 52.949781 1.231718 8.000000 41
0.756843  -6.987288 54.089305 1.229723 8.000000 42
0.774208  -7.081233 55.203051 1.227880 8.000000 43
0.791570  -7.171405 56.290837 1.226171 8.000000 44
0.808931  -7.257998 57.352571 1.224582 8.000000 45
0.826289  -7.341190 58.388238 1.223099 8.000000 46
0.843646  -7.421146 59.397894 1.221709 8.000000 47
0.861002  -7.498017 60.381655 1.220403 8.000000 48
0.878357  -7.571943 61.339693 1.219170 8.000000 49
0.895712  -7.643054 62.272230 1.218002 8.000000 50
0.913066  -7.711472 63.179532 1.216890 8.000000 51
0.930421  -7.777311 64.061907 1.215829 8.000000 52
0.947777  -7.840678 64.919698 1.214811 8.000000 53
0.965133  -7.901676 65.753283 1.213832 8.000000 54
0.982490  -7.960400 66.563068 1.212887 8.000000 55
0.999849  -8.016941 67.349487 1.211971 8.000000 56
1.017209  -8.071386 68.112997 1.211080 8.000000 57
1.034571  -8.123819 68.854076 1.210212 8.000000 58
1.051934  -8.174318 69.573220 1.209362 8.000000 59
1.069300  -8.222961 70.270941 1.208530 8.000000 60
1.086668  -8.269820 70.947761 1.207712 8.000000 61
1.104038  -8.314966 71.604216 1.206906 8.000000 62
1.121411  -8.358468 72.240848 1.206111 8.000000 63
1.138786  -8.400389 72.858204 1.205325 8.000000 64
1.156164  -8.440795 73.456836 1.204546 8.000000 65
1.173545  -8.479745 74.037297 1.203775 8.000000 66
1.190928  -8.517298 74.600141 1.203008 8.000000 67
1.208314  -8.553511 75.145918 1.202246 8.000000 68
1.225703  -8.588440 75.675176 1.201488 8.000000 69
1.243095  -8.622136 76.188458 1.200733 8.000000 70
1.260489  -8.654651 76.686301 1.199980 8.000000 71
1.277887  -8.686034 77.169234 1.199229 8.000000 72
1.295287  -8.716332 77.637779 1.198480 8.000000 73
1.312690  -8.745592 78.092446 1.197731 8.000000 74
1.330096  -8.773856 78.533738 1.196983 8.000000 75
1.347504  -8.801168 78.962145 1.196235 8.000000 76
1.364915  -8.827569 79.378146 1.195486 8.000000 77
1.382328  -8.853097 79.782210 1.194737 8.000000 78
1.399744  -8.877791 80.174792 1.193987 8.000000 79
1.417162  -8.901686 80.556334 1.193236 8.000000 80
1.434583  -8.924817 80.927266 1.192484 8.000000 81
1.452006  -8.947218 81.288006 1.191730 8.000000 82
1.469431  -8.968921 81.638957 1.190974 8.000000 83
1.486858  -8.989957 81.980510 1.190217 8.000000 84
1.504287  -9.010355 82.313043 1.189457 8.000000 85
1.521718  -9.030143 82.636921 1.188694 8.000000 86
1.539151  -9.049348 82.952495 1.187929 8.000000 87
1.556585  -9.067997 83.260106 1.187162 8.000000 88
1.574022  -9.086113 83.560078 1.186391 8.000000 89
1.591460  -9.103721 83.852728 1.185618 8.000000 90
1.608899  -9.120843 84.138357 1.184841 8.000000 91
1.626340  -9.137501 84.417255 1.184061 8.000000 92
1.643782  -9.153715 84.689701 1.183277 8.000000 93
1.661225  -9.169505 84.955964 1.182490 8.000000 94
1.678669  -9.184889 85.216298 1.181699 8.000000 95
1.696115  -9.199887 85.470951 1.180905 8.000000 96
1.713561  -9.214514 85.720158 1.180106 8.000000 97
1.731009  -9.228788 85.964144 1.179303 8.000000 98
1.748457  -9.242723 86.203124 1.178497 8.000000 99
1.765906  -9.256335 86.437307 1.177686 8.000000 100
1.783355  -9.269637 86.666887 1.176871 8.000000 101
1.800805  -9.282644 86.892055 1.176051 8.000000 102
1.818256  -9.295367 87.112990 1.175228 8.000000 103
1.835707  -9.307819 87.329864 1.174399 8.000000 104
1.853159  -9.320012 87.542840 1.173567 8.000000 105
1.870611  -9.331956 87.752076 1.172730 8.000000 106
1.888063  -9.343663 87.957719 1.171888 8.000000 107
1.905516  -9.355142 88.159914 1.171042 8.000000 108
1.922968  -9.366402 88.358794 1.170191 8.000000 109
1.940421  -9.377453 88.554489 1.169336 8.000000 110
1.957874  -9.388303 88.747122 1.168477 8.000000 111
1.975327  -9.398960 88.936810 1.167612 8.000000 112
1.992780  -9.409433 89.123663 1.166744 8.000000 113
2.010232  -9.419728 89.307788 1.165871 8.000000 114
2.027685  -9.429852 89.489286 1.164994 8.000000 115
2.045137  -9.439812 89.668251 1.164112 8.000000 116
2.062590  -9.449615 89.844774 1.163226 8.000000 117
2.080042  -9.459266 90.018942 1.162336 8.000000 118
2.097493  -9.468770 90.190837 1.161442 8.000000 119
2.114945  -9.478135 90.360536 1.160544 8.000000 120
2.132396  -9.487363 90.528113 1.159642 8.000000 121
2.149847  -9.496461 90.693638 1.158736 8.000000 122
2.167297  -9.505432 90.857176 1.157827 8.000000 123
2.184747  -9.514282 91.018792 1.156914 8.000000 124
2.202197  -9.523013 91.178544 1.155997 8.000000 125
2.219646  -9.531631 91.336488 1.155077 8.000000 126
2.237094  -9.540139 91.492679 1.154154 8.000000 127
2.254542  -9.548540 91.647165 1.153228 8.000000 128
2.271990  -9.556838 91.799995 1.152299 8.000000 129
2.289437  -9.565036 91.951214 1.151367 8.000000 130
2.306884  -9.573136 92.100864 1.150432 8.000000 131
2.324330  -9.581141 92.248986 1.149495 8.000000 132
2.341775  -9.589055 92.395617 1.148556 8.000000 133
2.359220  -9.596880 92.540793 1.147614 8.000000 134
2.376664  -9.604617 92.684548 1.146671 8.000000 135
2.394108  -9.612270 92.826913 1.145725 8.000000 136
2.411551  -9.619840 92.967919 1.144778 8.000000 137
2.428993  -9.627329 93.107593 1.143830 8.000000 138
2.446435  -9.634740 93.245963 1.142880 8.000000 139
2.463876  -9.642073 93.383052 1.141929 8.000000 140
2.481317  -9.649331 93.518885 1.140977 8.000000 141
2.498757  -9.656516 93.653483 1.140024 8.000000 142
2.516196  -9.663628 93.786867 1.139071 8.000000 143
2.533635  -9.670669 93.919056 1.138118 8.000000 144
2.551073  -9.677641 94.050069 1.137164 8.000000 145
2.568511  -9.684544 94.179923 1.136210 8.000000 146
2.585948  -9.691380 94.308633 1.135257 8.000000 147
2.603384  -9.698150 94.436214 1.134304 8.000000 148
2.620820  -9.704855 94.562681 1.133351 8.000000 149
2.638256  -9.711496 94.688046 1.132400 8.000000 150
2.655690  -9.718074 94.812321 1.131449 8.000000 151
2.673125  -9.724590 94.935519 1.130499 8.000000 152
2.690558  -9.731044 95.057649 1.129551 8.000000 153
2.707991  -9.737438 95.178722 1.128604 8.000000 154
2.725424  -9.743771 95.298747 1.127659 8.000000 155
2.742856  -9.750046 95.417732 1.126716 8.000000 156
2.760288  -9.756261 95.535687 1.125775 8.000000 157
2.777719  -9.762419 95.652617 1.124836 8.000000 158
2.795149  -9.768519 95.768531 1.123899 8.000000 159
2.812579  -9.774562 95.883435 1.122966 8.000000 160
2.830009  -9.780549 95.997335 1.122035 8.000000 161
2.847438  -9.786480 96.110237 1.121107 8.000000 162
2.864867  -9.792355 96.222146 1.120182 8.000000 163
2.882296  -9.798175 96.333067 1.119260 8.000000 164
2.899724  -9.803941 96.443006 1.118342 8.000000 165
2.917152  -9.809652 96.551966 1.117428 8.000000 166
2.934579  -9.815309 96.659952 1.116517 8.000000 167
2.952006  -9.820913 96.766968 1.115610 8.000000 168
2.969432  -9.826464 96.873017 1.114708 8.000000 169
2.986859  -9.831961 96.978104 1.113810 8.000000 170
3.004285  -9.837406 97.082231 1.112916 8.000000 171
3.021711  -9.842798 97.185402 1.112026 8.000000 172
3.039136  -9.848139 97.287620 1.111142 8.000000 173
3.056561  -9.853427 97.388888 1.110262 8.000000 174
3.073987  -9.858664 97.489209 1.109387 8.000000 175
3.091411  -9.863850 97.588586 1.108518 8.000000 176
3.108836  -9.868985 97.687022 1.107653 8.000000 177
3.126260  -9.874068 97.784519 1.106794 8.000000 178
3.143685  -9.879102 97.881080 1.105940 8.000000 179
3.161109  -9.884084 97.976708 1.105092 8.000000 180
3.178533  -9.889017 98.071405 1.104250 8.000000 181
3.195957  -9.893900 98.165174 1.103413 8.000000 182
3.213381  -9.898732 98.258018 1.102582 8.000000 183
3.230805  -9.903516 98.349940 1.101758 8.000000 184
3.248228  -9.908250 98.440941 1.100939 8.000000 185
3.265652  -9.912935 98.531026 1.100127 8.000000 186
3.283076  -9.917571 98.620196 1.099321 8.000000 187
3.300499  -9.922158 98.708455 1.098521 8.000000 188
3.317923  -9.926697 98.795805 1.097728 8.000000 189
3.335347  -9.931188 98.882250 1.096941 8.000000 190
3.352770  -9.935630 98.967792 1.096160 8.000000 191
3.370194  -9.940025 99.052435 1.095387 8.000000 192
3.387618  -9.944372 99.136181 1.094620 8.000000 193
3.405042  -9.948672 99.219035 1.093860 8.000000 194
3.422466  -9.952925 99.300998 1.093107 8.000000 195
3.439890  -9.957130 99.382075 1.092361 8.000000 196
3.457314  -9.961289 99.462270 1.091621 8.000000 197
3.474739  -9.965402 99.541585 1.090889 8.000000 198
3.492163  -9.969468 99.620024 1.090163 8.000000 199
3.509588  -9.973488 99.697592 1.089445 8.000000 200
3.527013  -9.977462 99.774292 1.088734 8.000000 201
3.544438  -9.981391 99.850127 1.088030 8.000000 202
3.561864  -9.985274 99.925103 1.087333 8.000000 203
3.579289  -9.989113 99.999223 1.086643 8.000000 204
3.596715  -9.992906 100.072492 1.085961 8.000000 205
3.614141  -9.996655 100.144913 1.085286 8.000000 206
3.631567  -10.000360 100.216491 1.084618 8.000000 207
3.648994  -10.004021 100.287232 1.083957 8.000000 208
3.666421  -10.007638 100.357138 1.083304 8.000000 209
3.683848  -10.011211 100.426216 1.082658 8.000000 210
3.701276  -10.014742 100.494470 1.082019 8.000000 211
3.718704  -10.018229 100.561904 1.081387 8.000000 212
3.736132  -10.021674 100.628524 1.080763 8.000000 213
3.753560  -10.025076 100.694336 1.080146 8.000000 214
3.770989  -10.028437 100.759343 1.079536 8.000000 215
3.788418  -10.031755 100.823551 1.078934 8.000000 216
3.805848  -10.035032 100.886966 1.078339 8.000000 217
3.823278  -10.038268 100.949593 1.077751 8.000000 218
3.840708  -10.041463 101.011437 1.077170 8.000000 219
3.858139  -10.044618 101.072504 1.076597 8.000000 220
3.875570  -10.047732 101.132800 1.076031 8.000000 221
3.893002  -10.050807 101.192330 1.075471 8.000000 222
3.910434  -10.053841 101.251101 1.074919 8.000000 223
3.927866  -10.056837 101.309116 1.074374 8.000000 224
3.945299  -10.059793 101.366384 1.073837 8.000000 225
3.962732  -10.062711 101.422909 1.073306 8.000000 226
3.980166  -10.065590 101.478698 1.072782 8.000000 227
3.997600  -10.068432 101.533757 1.072265 8.000000 228
4.015035  -10.071235 101.588091 1.071756 8.000000 229
4.032470  -10.074002 101.641707 1.071253 8.000000 230
4.049906  -10.076731 101.694611 1.070757 8.000000 231
4.067342  -10.079424 101.746809 1.070267 8.000000 232
4.084778  -10.082080 101.798308 1.069785 8.000000 233
4.102215  -10.084700 101.849113 1.069309 8.000000 234
4.119653  -10.087285 101.899232 1.068840 8.000000 235
4.137091  -10.089834 101.948670 1.068378 8.000000 236
4.154529  -10.092348 101.997434 1.067922 8.000000 237
4.171968  -10.094828 102.045530 1.067473 8.000000 238
4.189408  -10.097273 102.092964 1.067031 8.000000 239
4.206848  -10.099684 102.139744 1.066594 8.000000 240
4.224288  -10.102062 102.185876 1.066165 8.000000 241
4.241729  -10.104406 102.231365 1.065741 8.000000 242
4.259171  -10.106718 102.276219 1.065324 8.000000 243
4.276613  -10.108997 102.320443 1.064913 8.000000 244
4.294055  -10.111243 102.364046 1.064508 8.000000 245
4.311498  -10.113458 102.407032 1.064110 8.000000 246
4.328942  -10.115641 102.449409 1.063717 8.000000 247
4.346386  -10.117793 102.491182 1.063331 8.000000 248
4.363831  -10.119913 102.532360 1.062950 8.000000 249
4.381276  -10.122004 102.572947 1.062575 8.000000 250
4.398722  -10.124064 102.612951 1.062207 8.000000 251
4.416168  -10.126094 102.652377 1.061844 8.000000 252
4.433615  -10.128095 102.691233 1.061486 8.000000 253
4.451062  -10.130067 102.729525 1.061135 8.000000 254
4.468510  -10.132010 102.767259 1.060789 8.000000 255
4.485958  -10.133924 102.804442 1.060448 8.000000 256
4.503407  -10.135810 102.841080 1.060113 8.000000 257
4.520856  -10.137668 102.877179 1.059784 8.000000 258
4.538306  -10.139499 102.912747 1.059460 8.000000 259
4.555757  -10.141302 102.947788 1.059141 8.000000 260
4.573208  -10.143079 102.982310 1.058827 8.000000 261
4.590659  -10.144829 103.016319 1.058519 8.000000 262
4.608111  -10.146553 103.049820 1.058216 8.000000 263
4.625564  -10.148251 103.082821 1.057917 8.000000 264
4.643017  -10.149924 103.115328 1.057624 8.000000 265
4.660470  -10.151571 103.147345 1.057336 8.000000 266
4.677924  -10.153193 103.178881 1.057052 8.000000 267
4.695379  -10.154791 103.209940 1.056774 8.000000 268
4.712834  -10.156365 103.240529 1.056500 8.000000 269
4.730290  -10.157914 103.270654 1.056231 8.000000 270
4.747746  -10.159440 103.300321 1.055966 8.000000 271
4.765202  -10.160943 103.329535 1.055707 8.000000 272
4.782660  -10.162422 103.358303 1.055451 8.000000 273
4.800117  -10.163879 103.386630 1.055200 8.000000 274
4.817575  -10.165313 103.414522 1.054954 8.000000 275
4.835034  -10.166726 103.441986 1.054712 8.000000 276
4.852493  -10.168116 103.469026 1.054474 8.000000 277
4.869953  -10.169485 103.495648 1.054240 8.000000 278
4.887413  -10.170832 103.521858 1.054011 8.000000 279
4.904874  -10.172159 103.547662 1.053785 8.000000 280
4.922335  -10.173465 103.573065 1.053564 8.000000 281
4.939796  -10.174750 103.598073 1.053347 8.000000 282
4.957258  -10.176016 103.622690 1.053133 8.000000 283
4.974721  -10.177262 103.646923 1.052924 8.000000 284
4.992184  -10.178488 103.670776 1.052718 8.000000 285
5.009647  -10.179694 103.694256 1.052516 8.000000 286
5.027111  -10.180882 103.717366 1.052318 8.000000 287
5.044576  -10.182051 103.740113 1.052123 8.000000 288
5.062041  -10.183202 103.762502 1.051932 8.000000 289
5.079506  -10.184334 103.784537 1.051745 8.000000 290
5.096972  -10.185448 103.806223 1.051561 8.000000 291
5.114438  -10.186545 103.827566 1.051381 8.000000 292
5.131905  -10.187624 103.848571 1.051204 8.000000 293
5.149372  -10.188686 103.869242 1.051030 8.000000 294
5.166839  -10.189732 103.889584 1.050860 8.000000 295
5.184307  -10.190760 103.909602 1.050693 8.000000 296
5.201776  -10.191772 103.929301 1.050529 8.000000 297
5.219245  -10.192768 103.948685 1.050368 8.000000 298
5.236714  -10.193748 103.967760 1.050210 8.000000 299
5.254184  -10.194712 103.986528 1.050056 8.000000 300
5.271654  -10.195660 104.004996 1.049904 8.000000 301
5.289124  -10.196594 104.023167 1.049755 8.000000 302
5.306595  -10.197512 104.041046 1.049610 8.000000 303
5.324067  -10.198415 104.058637 1.049467 8.000000 304
5.341539  -10.199304 104.075945 1.049327 8.000000 305
5.359011  -10.200179 104.092974 1.049189 8.000000 306
5.376483  -10.201039 104.109727 1.049055 8.000000 307
5.393956  -10.201886 104.126210 1.048923 8.000000 308
5.411430  -10.202718 104.142426 1.048794 8.000000 309
5.428904  -10.203537 104.158379 1.048667 8.000000 310
5.446378  -10.204343 104.174074 1.048543 8.000000 311
5.463852  -10.205136 104.189513 1.048421 8.000000 312
5.481327  -10.205916 104.204702 1.048302 8.000000 313
5.498803  -10.206683 104.219644 1.048185 8.000000 314
5.516278  -10.207438 104.234342 1.048071 8.000000 315
5.533754  -10.208180 104.248801 1.047959 8.000000 316
5.551231  -10.208910 104.263025 1.047849 8.000000 317
5.568707  -10.209628 104.277016 1.047742 8.000000 318
5.586184  -10.210335 104.290778 1.047636 8.000000 319
5.603662  -10.211029 104.304316 1.047533 8.000000 320
5.621140  -10.211713 104.317632 1.047433 8.000000 321
5.638618  -10.212385 104.330730 1.047334 8.000000 322
5.656096  -10.213046 104.343613 1.047237 8.000000 323
5.673575  -10.213697 104.356285 1.047142 8.000000 324
5.691054  -10.214337 104.368749 1.047050 8.000000 325
5.708534  -10.214966 104.381008 1.046959 8.000000 326
5.726014  -10.215584 104.393066 1.046870 8.000000 327
5.743494  -10.216193 104.404926 1.046784 8.000000 328
5.760974  -10.216792 104.416591 1.046699 8.000000 329
5.778455  -10.217380 104.428063 1.046615 8.000000 330
5.795936  -10.217959 104.439347 1.046534 8.000000 331
5.813418  -10.218529 104.450445 1.046455 8.000000 332
5.830899  -10.219089 104.461359 1.046377 8.000000 333
5.848381  -10.219640 104.472094 1.046301 8.000000 334
5.865864  -10.220181 104.482651 1.046226 8.000000 335
5.883346  -10.220714 104.493034 1.046153 8.000000 336
5.900829  -10.221238 104.503246 1.046082 8.000000 337
5.918312  -10.221753 104.513288 1.046013 8.000000 338
5.935796  -10.222260 104.523165 1.045945 8.000000 339
5.953279  -10.222758 104.532878 1.045878 8.000000 340
5.970764  -10.223248 104.542431 1.045813 8.000000 341
5.988248  -10.223730 104.551825 1.045750 8.000000 342
6.005732  -10.224204 104.561064 1.045688 8.000000 343
6.023217  -10.224670 104.570149 1.045627 8.000000 344
6.040702  -10.225128 104.579084 1.045568 8.000000 345
6.058188  -10.225578 104.587871 1.045510 8.000000 346
6.075673  -10.226022 104.596512 1.045453 8.000000 347
6.093159  -10.226457 104.605010 1.045398 8.000000 348
6.110645  -10.226886 104.613367 1.045344 8.000000 349
6.128132  -10.227307 104.621585 1.045291 8.000000 350
6.145618  -10.227722 104.629666 1.045240 8.000000 351
6.163105  -10.228129 104.637613 1.045190 8.000000 352
6.180593  -10.228530 104.645429 1.045141 8.000000 353
6.198080  -10.228924 104.653114 1.045093 8.000000 354
6.215568  -10.229312 104.660672 1.045046 8.000000 355
6.233055  -10.229693 104.668104 1.045001 8.000000 356
6.250543  -10.230067 104.675412 1.044956 8.000000 357
6.268032  -10.230436 104.682599 1.044913 8.000000 358
6.285520  -10.230798 104.689667 1.044871 8.000000 359
6.303009  -10.231154 104.696617 1.044829 8.000000 360
6.320498  -10.231505 104.703451 1.044789 8.000000 361
6.337987  -10.231849 104.710172 1.044750 8.000000 362
6.355477  -10.232188 104.716781 1.044712 8.000000 363
6.372966  -10.232521 104.723280 1.044674 8.000000 364
6.390456  -10.232849 104.729671 1.044638 8.000000 365
6.407946  -10.233171 104.735955 1.044603 8.000000 366
6.425436  -10.233488 104.742135 1.044568 8.000000 367
6.442927  -10.233799 104.748212 1.044535 8.000000 368
6.460417  -10.234105 104.754188 1.044502 8.000000 369
6.477908  -10.234407 104.760064 1.044470 8.000000 370
6.495399  -10.234703 104.765843 1.044439 8.000000 371
6.512890  -10.234994 104.771526 1.044409 8.000000 372
6.530382  -10.235280 104.777114 1.044380 8.000000 373
6.547873  -10.235562 104.782609 1.044351 8.000000 374
6.565365  -10.235839 104.788012 1.044323 8.000000 375
6.582857  -10.236111 104.793326 1.044296 8.000000 376
6.600349  -10.236379 104.798551 1.044270 8.000000 377
6.617842  -10.236642 104.803690 1.044244 8.000000 378
6.635334  -10.236901 104.808743 1.044219 8.000000 379
