 # inv_tmp, energy, phys_var, phys_doublon, phys_num, step_i
0.1019326101335895  -0.1208063089806735 1.1442100004879452 0.0000000000000000 12.0000000000000000 1
0.2026798176145212  -0.2355614736522058 1.1747129093608439 0.0000000000000000 12.0000000000000000 2
0.3022908703996682  -0.3484327100822208 1.2236712893861172 0.0000000000000000 12.0000000000000000 3
0.4008256255065973  -0.4588037563439780 1.2897299739937436 0.0000000000000000 12.0000000000000000 4
0.4983523661848098  -0.5661232464010918 1.3712228735475072 0.0000000000000000 12.0000000000000000 5
0.5949455169269453  -0.6699141494220323 1.4662573585390699 0.0000000000000000 12.0000000000000000 6
0.6906833768937893  -0.7697798562377557 1.5728012106582074 0.0000000000000000 12.0000000000000000 7
0.7856459778541834  -0.8654068766449067 1.6887661112845607 0.0000000000000000 12.0000000000000000 8
0.8799131520615315  -0.9565643300456950 1.8120828097395614 0.0000000000000000 12.0000000000000000 9
0.9735628709547118  -1.0431006015946949 1.9407645794638722 0.0000000000000000 12.0000000000000000 10
1.0666698898375144  -1.1249376771582607 2.0729570988338986 0.0000000000000000 12.0000000000000000 11
1.1593047093266258  -1.2020637515914463 2.2069742927451745 0.0000000000000000 12.0000000000000000 12
1.2515328434613777  -1.2745247244902664 2.3413208101609517 0.0000000000000000 12.0000000000000000 13
1.3434143682974673  -1.3424151630035734 2.4747026269381323 0.0000000000000000 12.0000000000000000 14
1.4350037140938203  -1.4058692359862444 2.6060277469084765 0.0000000000000000 12.0000000000000000 15
1.5263496586376089  -1.4650520239003413 2.7343991653119404 0.0000000000000000 12.0000000000000000 16
1.6174954780881521  -1.5201515000136714 2.8591022201093050 0.0000000000000000 12.0000000000000000 17
1.7084792139111196  -1.5713713733673984 2.9795882595284704 0.0000000000000000 12.0000000000000000 18
1.7993340189037990  -1.6189248915276897 3.0954562652701592 0.0000000000000000 12.0000000000000000 19
1.8900885509594971  -1.6630296261485378 3.2064337452750458 0.0000000000000000 12.0000000000000000 20
1.9807673892571431  -1.7039032083173924 3.3123578883300464 0.0000000000000000 12.0000000000000000 21
2.0713914533926183  -1.7417599425424011 3.4131576811739910 0.0000000000000000 12.0000000000000000 22
2.1619784112124929  -1.7768082055925902 3.5088374410709333 0.0000000000000000 12.0000000000000000 23
2.2525430655736787  -1.8092485260766091 3.5994620177747030 0.0000000000000000 12.0000000000000000 24
2.3430977138764510  -1.8392722394318604 3.6851437669314695 0.0000000000000000 12.0000000000000000 25
2.4336524770379411  -1.8670606179936144 3.7660312871376949 0.0000000000000000 12.0000000000000000 26
2.5242155966767288  -1.8927843846199304 3.8422998382756175 0.0000000000000000 12.0000000000000000 27
2.6147937007791668  -1.9166035291093526 3.9141433122175808 0.0000000000000000 12.0000000000000000 28
2.7053920391316240  -1.9386673580280138 3.9817676018167880 0.0000000000000000 12.0000000000000000 29
2.7960146904390930  -1.9591147196645999 4.0453852044644361 0.0000000000000000 12.0000000000000000 30
2.8866647434046779  -1.9780743561076231 4.1052108976124453 0.0000000000000000 12.0000000000000000 31
2.9773444541950309  -1.9956653436000715 4.1614583317847336 0.0000000000000000 12.0000000000000000 32
3.0680553827262194  -2.0119975902630456 4.2143373988971380 0.0000000000000000 12.0000000000000000 33
3.1587985101208123  -2.0271723670020521 4.2640522481206773 0.0000000000000000 12.0000000000000000 34
3.2495743395457892  -2.0412828529979952 4.3107998366213343 0.0000000000000000 12.0000000000000000 35
3.3403829824679203  -2.0544146817576658 4.3547689173389772 0.0000000000000000 12.0000000000000000 36
3.4312242321765409  -2.0666464773884261 4.3961393799343398 0.0000000000000000 12.0000000000000000 37
3.5220976262353108  -2.0780503737014966 4.4350818738013773 0.0000000000000000 12.0000000000000000 38
3.6130024993423335  -2.0886925110619670 4.4717576534589760 0.0000000000000000 12.0000000000000000 39
3.7039380279067231  -2.0986335077025902 4.5063185966691330 0.0000000000000000 12.0000000000000000 40
3.7949032674918168  -2.1079289035993356 4.5389073543239036 0.0000000000000000 12.0000000000000000 41
3.8858971841318355  -2.1166295760516345 4.5696575985929240 0.0000000000000000 12.0000000000000000 42
3.9769186803999750  -2.1247821268879044 4.5986943421435145 0.0000000000000000 12.0000000000000000 43
4.0679666169911943  -2.1324292417836457 4.6261343065619016 0.0000000000000000 12.0000000000000000 44
4.1590398304814098  -2.1396100225812167 4.6520863225427806 0.0000000000000000 12.0000000000000000 45
4.2501371478354235  -2.1463602937743307 4.6766517480942662 0.0000000000000000 12.0000000000000000 46
4.3412573981575528  -2.1527128844960863 4.6999248940363252 0.0000000000000000 12.0000000000000000 47
4.4323994221104384  -2.1586978874504621 4.7219934485515465 0.0000000000000000 12.0000000000000000 48
4.5235620793678519  -2.1643428962723701 4.7429388945646291 0.0000000000000000 12.0000000000000000 49
4.6147442544154398  -2.1696732228051143 4.7628369153573384 0.0000000000000000 12.0000000000000000 50
4.7059448609683416  -2.1747120957578474 4.7817577851338271 0.0000000000000000 12.0000000000000000 51
4.7971628452356683  -2.1794808421582443 4.7997667422932633 0.0000000000000000 12.0000000000000000 52
4.8883971882280788  -2.1839990529538666 4.8169243439896654 0.0000000000000000 12.0000000000000000 53
4.9796469072756704  -2.1882847340447351 4.8332868012023109 0.0000000000000000 12.0000000000000000 54
5.0709110568982503  -2.1923544439535587 4.8489062940377980 0.0000000000000000 12.0000000000000000 55
5.1621887291485109  -2.1962234192615648 4.8638312673637616 0.0000000000000000 12.0000000000000000 56
5.2534790535300360  -2.1999056888593755 4.8781067071580733 0.0000000000000000 12.0000000000000000 57
5.3447811965761627  -2.2034141779852363 4.8917743981643920 0.0000000000000000 12.0000000000000000 58
5.4360943611620076  -2.2067608029483492 4.9048731635911764 0.0000000000000000 12.0000000000000000 59
5.5274177856103153  -2.2099565573638071 4.9174390876892300 0.0000000000000000 12.0000000000000000 60
5.6187507426417858  -2.2130115906581169 4.9295057221030234 0.0000000000000000 12.0000000000000000 61
5.7100925382119581  -2.2159352795408505 4.9411042769218110 0.0000000000000000 12.0000000000000000 62
5.8014425102695188  -2.2187362930786643 4.9522637973648198 0.0000000000000000 12.0000000000000000 63
5.8928000274647152  -2.2214226519527740 4.9630113270259866 0.0000000000000000 12.0000000000000000 64
5.9841644878312508  -2.2240017824299345 4.9733720585823002 0.0000000000000000 12.0000000000000000 65
6.0755353174607052  -2.2264805655298110 4.9833694728392715 0.0000000000000000 12.0000000000000000 66
6.1669119691846923  -2.2288653818283217 4.9930254669501473 0.0000000000000000 12.0000000000000000 67
6.2582939212768496  -2.2311621522967058 5.0023604726045416 0.0000000000000000 12.0000000000000000 68
6.3496806761840956  -2.2333763755396419 5.0113935649386319 0.0000000000000000 12.0000000000000000 69
6.4410717592944060  -2.2355131617624528 5.0201425628746170 0.0000000000000000 12.0000000000000000 70
6.5324667177464555  -2.2375772637670019 5.0286241215523564 0.0000000000000000 12.0000000000000000 71
6.6238651192850053  -2.2395731052482057 5.0368538174722017 0.0000000000000000 12.0000000000000000 72
6.7152665511646159  -2.2415048066378676 5.0448462269251859 0.0000000000000000 12.0000000000000000 73
6.8066706191032447  -2.2433762087195710 5.0526149982454651 0.0000000000000000 12.0000000000000000 74
6.8980769462864302  -2.2451908942175938 5.0601729183806867 0.0000000000000000 12.0000000000000000 75
6.9894851724221239  -2.2469522075438038 5.0675319742384657 0.0000000000000000 12.0000000000000000 76
7.0808949528456253  -2.2486632728694067 5.0747034092321321 0.0000000000000000 12.0000000000000000 77
7.1723059576737178  -2.2503270106727871 5.0816977754157158 0.0000000000000000 12.0000000000000000 78
7.2637178710067163  -2.2519461529006151 5.0885249815673959 0.0000000000000000 12.0000000000000000 79
7.3551303901769343  -2.2535232568665671 5.0951943375517494 0.0000000000000000 12.0000000000000000 80
7.4465432250418342  -2.2550607180004523 5.1017145952644585 0.0000000000000000 12.0000000000000000 81
7.5379560973200785  -2.2565607815500357 5.1080939864383881 0.0000000000000000 12.0000000000000000 82
7.6293687399685455  -2.2580255533283360 5.1143402575669370 0.0000000000000000 12.0000000000000000 83
7.7207808965983453  -2.2594570095905939 5.1204607021795203 0.0000000000000000 12.0000000000000000 84
7.8121923209279114  -2.2608570061173112 5.1264621906844718 0.0000000000000000 12.0000000000000000 85
7.9036027762711560  -2.2622272865727142 5.1323511979767851 0.0000000000000000 12.0000000000000000 86
7.9950120350587843  -2.2635694902016055 5.1381338289915544 0.0000000000000000 12.0000000000000000 87
8.0864198783908847  -2.2648851589218006 5.1438158423688822 0.0000000000000000 12.0000000000000000 88
8.1778260956189417  -2.2661757438641170 5.1494026723821076 0.0000000000000000 12.0000000000000000 89
8.2692304839555089  -2.2674426114071373 5.1548994492685054 0.0000000000000000 12.0000000000000000 90
8.3606328481098480  -2.2686870487496780 5.1603110180898657 0.0000000000000000 12.0000000000000000 91
8.4520329999478996  -2.2699102690600284 5.1656419562397629 0.0000000000000000 12.0000000000000000 92
8.5434307581750151  -2.2711134162374793 5.1708965897044976 0.0000000000000000 12.0000000000000000 93
8.6348259480400174  -2.2722975693185026 5.1760790081757548 0.0000000000000000 12.0000000000000000 94
8.7262184010591444  -2.2734637465570149 5.1811930791048306 0.0000000000000000 12.0000000000000000 95
8.8176079547585804  -2.2746129092055805 5.1862424607808197 0.0000000000000000 12.0000000000000000 96
8.9089944524343228  -2.2757459650219931 5.1912306145083011 0.0000000000000000 12.0000000000000000 97
9.0003777429281957  -2.2768637715235540 5.1961608159537711 0.0000000000000000 12.0000000000000000 98
9.0917576804189419  -2.2779671390093932 5.2010361657244406 0.0000000000000000 12.0000000000000000 99
9.1831341242272870  -2.2790568333693990 5.2058595992376659 0.0000000000000000 12.0000000000000000 100
9.2745069386340830  -2.2801335786967285 5.2106338959346328 0.0000000000000000 12.0000000000000000 101
9.3658759927105741  -2.2811980597193946 5.2153616878874214 0.0000000000000000 12.0000000000000000 102
9.4572411601599242  -2.2822509240651021 5.2200454678447024 0.0000000000000000 12.0000000000000000 103
9.5486023191692464  -2.2832927843722945 5.2246875967575628 0.0000000000000000 12.0000000000000000 104
9.6399593522713669  -2.2843242202592693 5.2292903108236732 0.0000000000000000 12.0000000000000000 105
9.7313121462156218  -2.2853457801622366 5.2338557280849525 0.0000000000000000 12.0000000000000000 106
9.8226605918470558  -2.2863579830522629 5.2383858546110549 0.0000000000000000 12.0000000000000000 107
9.9140045839934281  -2.2873613200402376 5.2428825902984926 0.0000000000000000 12.0000000000000000 108
10.0053440213594040  -2.2883562558782273 5.2473477343128163 0.0000000000000000 12.0000000000000000 109
10.0966788064275086  -2.2893432303648966 5.2517829901991524 0.0000000000000000 12.0000000000000000 110
10.1880088453652480  -2.2903226596620732 5.2561899706844546 0.0000000000000000 12.0000000000000000 111
10.2793340479380042  -2.2912949375289138 5.2605702021929570 0.0000000000000000 12.0000000000000000 112
10.3706543274272729  -2.2922604364796646 5.2649251290947481 0.0000000000000000 12.0000000000000000 113
10.4619696005538447  -2.2932195088704859 5.2692561177058073 0.0000000000000000 12.0000000000000000 114
10.5532797874055309  -2.2941724879203953 5.2735644600564671 0.0000000000000000 12.0000000000000000 115
10.6445848113691532  -2.2951196886709901 5.2778513774440157 0.0000000000000000 12.0000000000000000 116
10.7358845990664218  -2.2960614088892433 5.2821180237839602 0.0000000000000000 12.0000000000000000 117
10.8271790802934333  -2.2969979299173113 5.2863654887733826 0.0000000000000000 12.0000000000000000 118
10.9184681879635015  -2.2979295174730421 5.2905948008788677 0.0000000000000000 12.0000000000000000 119
11.0097518580530611  -2.2988564224045147 5.2948069301605143 0.0000000000000000 12.0000000000000000 120
11.1010300295504152  -2.2997788814017710 5.2990027909427759 0.0000000000000000 12.0000000000000000 121
11.1923026444070786  -2.3006971176685931 5.3031832443420477 0.0000000000000000 12.0000000000000000 122
11.2835696474915430  -2.3016113415570048 5.3073491006602156 0.0000000000000000 12.0000000000000000 123
11.3748309865452075  -2.3025217511669780 5.3115011216527499 0.0000000000000000 12.0000000000000000 124
11.4660866121403622  -2.3034285329136139 5.3156400226793146 0.0000000000000000 12.0000000000000000 125
11.5573364776400176  -2.3043318620639353 5.3197664747442799 0.0000000000000000 12.0000000000000000 126
11.6485805391593864  -2.3052319032452488 5.3238811064340421 0.0000000000000000 12.0000000000000000 127
11.7398187555289493  -2.3061288109269173 5.3279845057575770 0.0000000000000000 12.0000000000000000 128
11.8310510882588797  -2.3070227298772186 5.3320772218961814 0.0000000000000000 12.0000000000000000 129
11.9222775015047624  -2.3079137955968827 5.3361597668679863 0.0000000000000000 12.0000000000000000 130
12.0134979620344211  -2.3088021347307679 5.3402326171124326 0.0000000000000000 12.0000000000000000 131
12.1047124391958132  -2.3096878654590389 5.3442962149995559 0.0000000000000000 12.0000000000000000 132
12.1959209048858046  -2.3105710978691105 5.3483509702685943 0.0000000000000000 12.0000000000000000 133
12.2871233335197800  -2.3114519343095483 5.3523972614001396 0.0000000000000000 12.0000000000000000 134
12.3783197020019795  -2.3123304697270148 5.3564354369257767 0.0000000000000000 12.0000000000000000 135
12.4695099896964461  -2.3132067919873007 5.3604658166789036 0.0000000000000000 12.0000000000000000 136
12.5606941783985420  -2.3140809821813786 5.3644886929901441 0.0000000000000000 12.0000000000000000 137
12.6518722523069300  -2.3149531149173947 5.3685043318306267 0.0000000000000000 12.0000000000000000 138
12.7430441979959355  -2.3158232585994103 5.3725129739060780 0.0000000000000000 12.0000000000000000 139
12.8342100043882628  -2.3166914756936832 5.3765148357045867 0.0000000000000000 12.0000000000000000 140
12.9253696627279488  -2.3175578229832099 5.3805101105006763 0.0000000000000000 12.0000000000000000 141
13.0165231665535295  -2.3184223518112130 5.3844989693181429 0.0000000000000000 12.0000000000000000 142
13.1076705116713583  -2.3192851083141974 5.3884815618539728 0.0000000000000000 12.0000000000000000 143
13.1988116961290007  -2.3201461336451810 5.3924580173655050 0.0000000000000000 12.0000000000000000 144
13.2899467201886861  -2.3210054641876479 5.3964284455228775 0.0000000000000000 12.0000000000000000 145
13.3810755863007458  -2.3218631317607410 5.4003929372286414 0.0000000000000000 12.0000000000000000 146
13.4721982990770233  -2.3227191638161857 5.4043515654063441 0.0000000000000000 12.0000000000000000 147
13.5633148652641768  -2.3235735836273941 5.4083043857597346 0.0000000000000000 12.0000000000000000 148
13.6544252937168604  -2.3244264104711845 5.4122514375041657 0.0000000000000000 12.0000000000000000 149
13.7455295953707832  -2.3252776598024965 5.4161927440716511 0.0000000000000000 12.0000000000000000 150
13.8366277832155351  -2.3261273434224976 5.4201283137909719 0.0000000000000000 12.0000000000000000 151
13.9277198722672235  -2.3269754696404110 5.4240581405440853 0.0000000000000000 12.0000000000000000 152
14.0188058795408708  -2.3278220434294075 5.4279822044000863 0.0000000000000000 12.0000000000000000 153
14.1098858240225198  -2.3286670665768563 5.4319004722278219 0.0000000000000000 12.0000000000000000 154
14.2009597266410825  -2.3295105378292291 5.4358128982882299 0.0000000000000000 12.0000000000000000 155
14.2920276102398685  -2.3303524530319288 5.4397194248074081 0.0000000000000000 12.0000000000000000 156
14.3830894995477916  -2.3311928052642825 5.4436199825313150 0.0000000000000000 12.0000000000000000 157
14.4741454211502294  -2.3320315849699496 5.4475144912630107 0.0000000000000000 12.0000000000000000 158
14.5651954034595583  -2.3328687800829591 5.4514028603832188 0.0000000000000000 12.0000000000000000 159
14.6562394766852933  -2.3337043761495870 5.4552849893550182 0.0000000000000000 12.0000000000000000 160
14.7472776728038895  -2.3345383564462567 5.4591607682133176 0.0000000000000000 12.0000000000000000 161
14.8383100255281466  -2.3353707020936643 5.4630300780398509 0.0000000000000000 12.0000000000000000 162
14.9293365702762433  -2.3362013921672817 5.4668927914242751 0.0000000000000000 12.0000000000000000 163
15.0203573441403702  -2.3370304038044010 5.4707487729119642 0.0000000000000000 12.0000000000000000 164
15.1113723858550060  -2.3378577123078759 5.4745978794390542 0.0000000000000000 12.0000000000000000 165
15.2023817357647690  -2.3386832912466957 5.4784399607552583 0.0000000000000000 12.0000000000000000 166
15.2933854357919206  -2.3395071125535152 5.4822748598348969 0.0000000000000000 12.0000000000000000 167
15.3843835294034648  -2.3403291466192768 5.4861024132766367 0.0000000000000000 12.0000000000000000 168
15.4753760615778706  -2.3411493623850284 5.4899224516922978 0.0000000000000000 12.0000000000000000 169
15.5663630787714382  -2.3419677274310500 5.4937348000851793 0.0000000000000000 12.0000000000000000 170
15.6573446288843012  -2.3427842080633807 5.4975392782182091 0.0000000000000000 12.0000000000000000 171
15.7483207612260507  -2.3435987693978513 5.5013357009722892 0.0000000000000000 12.0000000000000000 172
15.8392915264810465  -2.3444113754417053 5.5051238786951453 0.0000000000000000 12.0000000000000000 173
15.9302569766733804  -2.3452219891728792 5.5089036175409554 0.0000000000000000 12.0000000000000000 174
16.0212171651315174  -2.3460305726170372 5.5126747198010539 0.0000000000000000 12.0000000000000000 175
16.1121721464526431  -2.3468370869224184 5.5164369842259511 0.0000000000000000 12.0000000000000000 176
16.2031219764667078  -2.3476414924325648 5.5201902063388983 0.0000000000000000 12.0000000000000000 177
16.2940667122002019  -2.3484437487569982 5.5239341787412339 0.0000000000000000 12.0000000000000000 178
16.3850064118396723  -2.3492438148398955 5.5276686914097040 0.0000000000000000 12.0000000000000000 179
16.4759411346949953  -2.3500416490268297 5.5313935319859464 0.0000000000000000 12.0000000000000000 180
16.5668709411624278  -2.3508372091296059 5.5351084860583155 0.0000000000000000 12.0000000000000000 181
16.6577958926874601  -2.3516304524892679 5.5388133374362152 0.0000000000000000 12.0000000000000000 182
16.7487160517274845  -2.3524213360372928 5.5425078684170952 0.0000000000000000 12.0000000000000000 183
16.8396314817142922  -2.3532098163550357 5.5461918600462363 0.0000000000000000 12.0000000000000000 184
16.9305422470164295  -2.3539958497314490 5.5498650923694735 0.0000000000000000 12.0000000000000000 185
17.0214484129014707  -2.3547793922191258 5.5535273446789830 0.0000000000000000 12.0000000000000000 186
17.1123500454981397  -2.3555603996886862 5.5571783957522314 0.0000000000000000 12.0000000000000000 187
17.2032472117583879  -2.3563388278815571 5.5608180240842078 0.0000000000000000 12.0000000000000000 188
17.2941399794194339  -2.3571146324611583 5.5644460081130358 0.0000000000000000 12.0000000000000000 189
17.3850284169657350  -2.3578877690625366 5.5680621264390631 0.0000000000000000 12.0000000000000000 190
17.4759125935910120  -2.3586581933404664 5.5716661580375071 0.0000000000000000 12.0000000000000000 191
17.5667925791602322  -2.3594258610160486 5.5752578824647649 0.0000000000000000 12.0000000000000000 192
17.6576684441716942  -2.3601907279218302 5.5788370800584435 0.0000000000000000 12.0000000000000000 193
17.7485402597191566  -2.3609527500454588 5.5824035321311865 0.0000000000000000 12.0000000000000000 194
17.8394080974540401  -2.3617118835719149 5.5859570211583947 0.0000000000000000 12.0000000000000000 195
