 # inv_tmp, energy, phys_var, phys_doublon, phys_num, step_i
0.1019617431161029  -0.1152001611292480 1.1746501186783367 0.0000000000000000 12.0000000000000000 1
0.2027059015390959  -0.2330219279704546 1.1973545142784467 0.0000000000000000 12.0000000000000000 2
0.3022959355454823  -0.3481001379433477 1.2386137250108800 0.0000000000000000 12.0000000000000000 3
0.4008061091563345  -0.4597756053154300 1.2969820767526898 0.0000000000000000 12.0000000000000000 4
0.4983179122599447  -0.5675106271988826 1.3707113035142007 0.0000000000000000 12.0000000000000000 5
0.5949166947780531  -0.6708913287042091 1.4578524033228406 0.0000000000000000 12.0000000000000000 6
0.6906887224878137  -0.7696229780225112 1.5563537896146276 0.0000000000000000 12.0000000000000000 7
0.7857187725048258  -0.8635200785554988 1.6641488608590431 0.0000000000000000 12.0000000000000000 8
0.8800883036586563  -0.9524931477572846 1.7792287094787826 0.0000000000000000 12.0000000000000000 9
0.9738741735717950  -1.0365339206477899 1.8996981468410723 0.0000000000000000 12.0000000000000000 10
1.0671478337151159  -1.1157003790283515 2.0238152043104458 0.0000000000000000 12.0000000000000000 11
1.1599749142799853  -1.1901026087251014 2.1500156443912672 0.0000000000000000 12.0000000000000000 12
1.2524151076263219  -1.2598901048688966 2.2769247958452987 0.0000000000000000 12.0000000000000000 13
1.3445222667005923  -1.3252408260303237 2.4033593182412014 0.0000000000000000 12.0000000000000000 14
1.4363446480658011  -1.3863520606968254 2.5283214453840421 0.0000000000000000 12.0000000000000000 15
1.5279252441752789  -1.4434330128320432 2.6509879894670010 0.0000000000000000 12.0000000000000000 16
1.6193021637515463  -1.4966989244489812 2.7706960187315550 0.0000000000000000 12.0000000000000000 17
1.7105090312807678  -1.5463665152615365 2.8869267286917117 0.0000000000000000 12.0000000000000000 18
1.8015753862436741  -1.5926505158526090 2.9992886584441361 0.0000000000000000 12.0000000000000000 19
1.8925270698551748  -1.6357610874548763 3.1075010837773820 0.0000000000000000 12.0000000000000000 20
1.9833865921336646  -1.6759019479998234 3.2113781562164485 0.0000000000000000 12.0000000000000000 21
2.0741734755187493  -1.7132690535904334 3.3108141505988846 0.0000000000000000 12.0000000000000000 22
2.1649045734406820  -1.7480497128297090 3.4057700270690394 0.0000000000000000 12.0000000000000000 23
2.2555943635871962  -1.7804220363731305 3.4962613983680715 0.0000000000000000 12.0000000000000000 24
2.3462552164006150  -1.8105546449055521 3.5823479117470400 0.0000000000000000 12.0000000000000000 25
2.4368976397768733  -1.8386065755150913 3.6641239992997212 0.0000000000000000 12.0000000000000000 26
2.5275305011685290  -1.8647273396046855 3.7417109147178431 0.0000000000000000 12.0000000000000000 27
2.6181612284050746  -1.8890570956602073 3.8152499533266346 0.0000000000000000 12.0000000000000000 28
2.7087959905896133  -1.9117269080036390 3.8848967417569842 0.0000000000000000 12.0000000000000000 29
2.7994398604409398  -1.9328590686528986 3.9508164806589088 0.0000000000000000 12.0000000000000000 30
2.8900969594398327  -1.9525674640400403 4.0131800261057329 0.0000000000000000 12.0000000000000000 31
2.9807705871150691  -1.9709579719592663 4.0721607010097109 0.0000000000000000 12.0000000000000000 32
3.0714633357712824  -1.9881288769890477 4.1279317356539211 0.0000000000000000 12.0000000000000000 33
3.1621771919186172  -2.0041712949493933 4.1806642453797611 0.0000000000000000 12.0000000000000000 34
3.2529136256139153  -2.0191695988512586 4.2305256628622363 0.0000000000000000 12.0000000000000000 35
3.3436736688657378  -2.0332018403650900 4.2776785517712046 0.0000000000000000 12.0000000000000000 36
3.4344579841920604  -2.0463401621458903 4.3222797376272757 0.0000000000000000 12.0000000000000000 37
3.5252669243514152  -2.0586511974501374 4.3644797001058961 0.0000000000000000 12.0000000000000000 38
3.6161005841970533  -2.0701964543997091 4.4044221787997753 0.0000000000000000 12.0000000000000000 39
3.7069588455310210  -2.0810326830159394 4.4422439514600693 0.0000000000000000 12.0000000000000000 40
3.7978414157623224  -2.0912122237838466 4.4780747499880551 0.0000000000000000 12.0000000000000000 41
3.8887478611018627  -2.1007833370299567 4.5120372849605355 0.0000000000000000 12.0000000000000000 42
3.9796776349577292  -2.1097905128221432 4.5442473542838764 0.0000000000000000 12.0000000000000000 43
4.0706301021284084  -2.1182747614398760 4.5748140157358055 0.0000000000000000 12.0000000000000000 44
4.1616045593294002  -2.1262738847303115 4.6038398067299147 0.0000000000000000 12.0000000000000000 45
4.2526002525307129  -2.1338227288706495 4.6314209976866412 0.0000000000000000 12.0000000000000000 46
4.3436163915292330  -2.1409534192097337 4.6576478679768094 0.0000000000000000 12.0000000000000000 47
4.4346521621309121  -2.1476955779708025 4.6826049955773748 0.0000000000000000 12.0000000000000000 48
4.5257067362731638  -2.1540765256701526 4.7063715533976698 0.0000000000000000 12.0000000000000000 49
4.6167792803775987  -2.1601214671499678 4.7290216067472173 0.0000000000000000 12.0000000000000000 50
4.7078689621870531  -2.1658536631435110 4.7506244076671544 0.0000000000000000 12.0000000000000000 51
4.7989749563085864  -2.1712945882921861 4.7712446828756550 0.0000000000000000 12.0000000000000000 52
4.8900964486553553  -2.1764640765208512 4.7909429129178847 0.0000000000000000 12.0000000000000000 53
4.9812326399548388  -2.1813804546537225 4.8097756007926993 0.0000000000000000 12.0000000000000000 54
5.0723827484684136  -2.1860606651211518 4.8277955288775765 0.0000000000000000 12.0000000000000000 55
5.1635460120475249  -2.1905203785698668 4.8450520034120599 0.0000000000000000 12.0000000000000000 56
5.2547216896343327  -2.1947740971478682 4.8615910861474019 0.0000000000000000 12.0000000000000000 57
5.3459090622996177  -2.1988352491916432 4.8774558130419816 0.0000000000000000 12.0000000000000000 58
5.4371074338974248  -2.2027162759988546 4.8926864000920194 0.0000000000000000 12.0000000000000000 59
5.5283161314044618  -2.2064287113251879 4.9073204365464775 0.0000000000000000 12.0000000000000000 60
5.6195345050022683  -2.2099832542002957 4.9213930658732643 0.0000000000000000 12.0000000000000000 61
5.7107619279514630  -2.2133898356152759 4.9349371549289849 0.0000000000000000 12.0000000000000000 62
5.8019977962999230  -2.2166576795932760 4.9479834518428811 0.0000000000000000 12.0000000000000000 63
5.8932415284602548  -2.2197953591158770 4.9605607331628683 0.0000000000000000 12.0000000000000000 64
5.9844925646863310  -2.2228108473410368 4.9726959408321179 0.0000000000000000 12.0000000000000000 65
6.0757503664738870  -2.2257115645136878 4.9844143095721112 0.0000000000000000 12.0000000000000000 66
6.1670144159060438  -2.2285044209375364 4.9957394852454469 0.0000000000000000 12.0000000000000000 67
6.2582842149610842  -2.2311958563463383 5.0066936347614961 0.0000000000000000 12.0000000000000000 68
6.3495592847968059  -2.2337918759846938 5.0172975480721069 0.0000000000000000 12.0000000000000000 69
6.4408391650232177  -2.2362980836822879 5.0275707327845103 0.0000000000000000 12.0000000000000000 70
6.5321234129731076  -2.2387197121813820 5.0375315018959110 0.0000000000000000 12.0000000000000000 71
6.6234116029781971  -2.2410616509550505 5.0471970551295424 0.0000000000000000 12.0000000000000000 72
6.7147033256570214  -2.2433284717332098 5.0565835543264370 0.0000000000000000 12.0000000000000000 73
6.8059981872193074  -2.2455244519345987 5.0657061933211214 0.0000000000000000 12.0000000000000000 74
6.8972958087905507  -2.2476535961856441 5.0745792627035531 0.0000000000000000 12.0000000000000000 75
6.9885958257595489  -2.2497196560912887 5.0832162098441298 0.0000000000000000 12.0000000000000000 76
7.0798978871508398  -2.2517261484083582 5.0916296945338306 0.0000000000000000 12.0000000000000000 77
7.1712016550233857  -2.2536763717588233 5.0998316405677100 0.0000000000000000 12.0000000000000000 78
7.2625068038962999  -2.2555734220081924 5.1078332835770945 0.0000000000000000 12.0000000000000000 79
7.3538130202019456  -2.2574202064232223 5.1156452153941654 0.0000000000000000 12.0000000000000000 80
7.4451200017664485  -2.2592194567130499 5.1232774252120201 0.0000000000000000 12.0000000000000000 81
7.5364274573173020  -2.2609737410486703 5.1307393377840125 0.0000000000000000 12.0000000000000000 82
7.6277351060175880  -2.2626854751472862 5.1380398488879351 0.0000000000000000 12.0000000000000000 83
7.7190426770261134  -2.2643569325004336 5.1451873582636365 0.0000000000000000 12.0000000000000000 84
7.8103499090826505  -2.2659902538178351 5.1521898002168065 0.0000000000000000 12.0000000000000000 85
7.9016565501173650  -2.2675874557525852 5.1590546720668460 0.0000000000000000 12.0000000000000000 86
7.9929623568834351  -2.2691504389675328 5.1657890606030143 0.0000000000000000 12.0000000000000000 87
8.0842670946118531  -2.2706809955974396 5.1723996667003043 0.0000000000000000 12.0000000000000000 88
8.1755705366873155  -2.2721808161567632 5.1788928282346820 0.0000000000000000 12.0000000000000000 89
8.2668724643441500  -2.2736514959385272 5.1852745414264092 0.0000000000000000 12.0000000000000000 90
8.3581726663812184  -2.2750945409457906 5.1915504807300525 0.0000000000000000 12.0000000000000000 91
8.4494709388947200  -2.2765113733936539 5.1977260173804822 0.0000000000000000 12.0000000000000000 92
8.5407670850278592  -2.2779033368164137 5.2038062366955486 0.0000000000000000 12.0000000000000000 93
8.6320609147364049  -2.2792717008115444 5.2097959542282286 0.0000000000000000 12.0000000000000000 94
8.7233522445691190  -2.2806176654494199 5.2156997308536841 0.0000000000000000 12.0000000000000000 95
8.8146408974621426  -2.2819423653752540 5.2215218868699971 0.0000000000000000 12.0000000000000000 96
8.9059267025464397  -2.2832468736274585 5.2272665151851587 0.0000000000000000 12.0000000000000000 97
8.9972094949674091  -2.2845322051945800 5.2329374936571549 0.0000000000000000 12.0000000000000000 98
9.0884891157158982  -2.2857993203310976 5.2385384966488040 0.0000000000000000 12.0000000000000000 99
9.1797654114697611  -2.2870491276506648 5.2440730058541938 0.0000000000000000 12.0000000000000000 100
9.2710382344452924  -2.2882824870138307 5.2495443204490915 0.0000000000000000 12.0000000000000000 101
9.3623074422578014  -2.2895002122258479 5.2549555666136794 0.0000000000000000 12.0000000000000000 102
9.4535728977906643  -2.2907030735588849 5.2603097064722206 0.0000000000000000 12.0000000000000000 103
9.5448344690722475  -2.2918918001118014 5.2656095464908272 0.0000000000000000 12.0000000000000000 104
9.6360920291601087  -2.2930670820195358 5.2708577453713126 0.0000000000000000 12.0000000000000000 105
9.7273454560319124  -2.2942295725232138 5.2760568214762822 0.0000000000000000 12.0000000000000000 106
9.8185946324825650  -2.2953798899111417 5.2812091598178359 0.0000000000000000 12.0000000000000000 107
9.9098394460270747  -2.2965186193400857 5.2863170186399353 0.0000000000000000 12.0000000000000000 108
10.0010797888086653  -2.2976463145454327 5.2913825356221107 0.0000000000000000 12.0000000000000000 109
10.0923155575117374  -2.2987634994481905 5.2964077337301818 0.0000000000000000 12.0000000000000000 110
10.1835466532792971  -2.2998706696661291 5.3013945267377451 0.0000000000000000 12.0000000000000000 111
10.2747729816344080  -2.3009682939358069 5.3063447244403719 0.0000000000000000 12.0000000000000000 112
10.3659944524054186  -2.3020568154516936 5.3112600375829295 0.0000000000000000 12.0000000000000000 113
10.4572109796545494  -2.3031366531281270 5.3161420825188692 0.0000000000000000 12.0000000000000000 114
10.5484224816095988  -2.3042082027893898 5.3209923856189807 0.0000000000000000 12.0000000000000000 115
10.6396288805984369  -2.3052718382928132 5.3258123874458771 0.0000000000000000 12.0000000000000000 116
10.7308301029860829  -2.3063279125894023 5.3306034467092394 0.0000000000000000 12.0000000000000000 117
10.8220260791140337  -2.3073767587261820 5.3353668440158408 0.0000000000000000 12.0000000000000000 118
10.9132167432417155  -2.3084186907941229 5.3401037854273241 0.0000000000000000 12.0000000000000000 119
11.0044020334897557  -2.3094540048252252 5.3448154058378448 0.0000000000000000 12.0000000000000000 120
11.0955818917849278  -2.3104829796420780 5.3495027721827659 0.0000000000000000 12.0000000000000000 121
11.1867562638065650  -2.3115058776629724 5.3541668864888967 0.0000000000000000 12.0000000000000000 122
11.2779250989342898  -2.3125229456654082 5.3588086887759783 0.0000000000000000 12.0000000000000000 123
11.3690883501968436  -2.3135344155106461 5.3634290598184631 0.0000000000000000 12.0000000000000000 124
11.4602459742219587  -2.3145405048317573 5.3680288237760418 0.0000000000000000 12.0000000000000000 125
11.5513979311870436  -2.3155414176874460 5.3726087507007545 0.0000000000000000 12.0000000000000000 126
11.6425441847706033  -2.3165373451837712 5.3771695589280419 0.0000000000000000 12.0000000000000000 127
11.7336847021042754  -2.3175284660657294 5.3817119173585288 0.0000000000000000 12.0000000000000000 128
11.8248194537253433  -2.3185149472805322 5.3862364476369544 0.0000000000000000 12.0000000000000000 129
11.9159484135296498  -2.3194969445142832 5.3907437262341675 0.0000000000000000 12.0000000000000000 130
12.0070715587248120  -2.3204746027036420 5.3952342864377698 0.0000000000000000 12.0000000000000000 131
12.0981888697836464  -2.3214480565239493 5.3997086202565603 0.0000000000000000 12.0000000000000000 132
12.1893003303977103  -2.3224174308551957 5.4041671802436628 0.0000000000000000 12.0000000000000000 133
12.2804059274309374  -2.3233828412271089 5.4086103812428341 0.0000000000000000 12.0000000000000000 134
12.3715056508732228  -2.3243443942445685 5.4130386020622119 0.0000000000000000 12.0000000000000000 135
12.4625994937939684  -2.3253021879944491 5.4174521870794390 0.0000000000000000 12.0000000000000000 136
12.5536874522954935  -2.3262563124349520 5.4218514477818811 0.0000000000000000 12.0000000000000000 137
12.6447695254662786  -2.3272068497683778 5.4262366642453834 0.0000000000000000 12.0000000000000000 138
12.7358457153339657  -2.3281538747982671 5.4306080865548338 0.0000000000000000 12.0000000000000000 139
12.8269160268181306  -2.3290974552717425 5.4349659361695295 0.0000000000000000 12.0000000000000000 140
12.9179804676827494  -2.3300376522078521 5.4393104072362046 0.0000000000000000 12.0000000000000000 141
13.0090390484883187  -2.3309745202126595 5.4436416678523809 0.0000000000000000 12.0000000000000000 142
13.1000917825436556  -2.3319081077817563 5.4479598612825040 0.0000000000000000 12.0000000000000000 143
13.1911386858573039  -2.3328384575908672 5.4522651071292128 0.0000000000000000 12.0000000000000000 144
13.2821797770885421  -2.3337656067751329 5.4565575024619228 0.0000000000000000 12.0000000000000000 145
13.3732150774979903  -2.3346895871976501 5.4608371229047501 0.0000000000000000 12.0000000000000000 146
13.4642446108978007  -2.3356104257077943 5.4651040236856874 0.0000000000000000 12.0000000000000000 147
13.5552684036013975  -2.3365281443898240 5.4693582406488606 0.0000000000000000 12.0000000000000000 148
13.6462864843727978  -2.3374427608022250 5.4735997912314849 0.0000000000000000 12.0000000000000000 149
13.7372988843755035  -2.3383542882082349 5.4778286754071353 0.0000000000000000 12.0000000000000000 150
13.8283056371209323  -2.3392627357979561 5.4820448765967864 0.0000000000000000 12.0000000000000000 151
13.9193067784164288  -2.3401681089024358 5.4862483625490164 0.0000000000000000 12.0000000000000000 152
14.0103023463128533  -2.3410704092000718 5.4904390861906380 0.0000000000000000 12.0000000000000000 153
14.1012923810517492  -2.3419696349156696 5.4946169864489915 0.0000000000000000 12.0000000000000000 154
14.1922769250121004  -2.3428657810124900 5.4987819890470409 0.0000000000000000 12.0000000000000000 155
14.2832560226567047  -2.3437588393775481 5.5029340072723070 0.0000000000000000 12.0000000000000000 156
14.3742297204781568  -2.3446487990004692 5.5070729427206633 0.0000000000000000 12.0000000000000000 157
14.4651980669444900  -2.3455356461461339 5.5111986860159163 0.0000000000000000 12.0000000000000000 158
14.5561611124444692  -2.3464193645213864 5.5153111175060534 0.0000000000000000 12.0000000000000000 159
14.6471189092325673  -2.3472999354359949 5.5194101079369684 0.0000000000000000 12.0000000000000000 160
14.7380715113736525  -2.3481773379581181 5.5234955191044506 0.0000000000000000 12.0000000000000000 161
14.8290189746874077  -2.3490515490644484 5.5275672044851589 0.0000000000000000 12.0000000000000000 162
14.9199613566925002  -2.3499225437852340 5.5316250098472555 0.0000000000000000 12.0000000000000000 163
15.0108987165505550  -2.3507902953443609 5.5356687738413353 0.0000000000000000 12.0000000000000000 164
15.1018311150099294  -2.3516547752946453 5.5396983285722694 0.0000000000000000 12.0000000000000000 165
15.1927586143493460  -2.3525159536485156 5.5437135001525091 0.0000000000000000 12.0000000000000000 166
15.2836812783213940  -2.3533737990042134 5.5477141092373863 0.0000000000000000 12.0000000000000000 167
15.3745991720959605  -2.3542282786676645 5.5516999715429254 0.0000000000000000 12.0000000000000000 168
15.4655123622035848  -2.3550793587701415 5.5556708983466123 0.0000000000000000 12.0000000000000000 169
15.5564209164788103  -2.3559270043818579 5.5596266969716002 0.0000000000000000 12.0000000000000000 170
15.6473249040035522  -2.3567711796215898 5.5635671712547428 0.0000000000000000 12.0000000000000000 171
15.7382243950505032  -2.3576118477624570 5.5674921219988747 0.0000000000000000 12.0000000000000000 172
15.8291194610266359  -2.3584489713339583 5.5714013474097168 0.0000000000000000 12.0000000000000000 173
15.9200101744168343  -2.3592825122203549 5.5752946435177400 0.0000000000000000 12.0000000000000000 174
16.0108966087276698  -2.3601124317555193 5.5791718045853766 0.0000000000000000 12.0000000000000000 175
16.1017788384313967  -2.3609386908143066 5.5830326234998466 0.0000000000000000 12.0000000000000000 176
16.1926569389101722  -2.3617612499005705 5.5868768921519738 0.0000000000000000 12.0000000000000000 177
16.2835309864005353  -2.3625800692318757 5.5907044018012249 0.0000000000000000 12.0000000000000000 178
16.3744010579382184  -2.3633951088210070 5.5945149434273045 0.0000000000000000 12.0000000000000000 179
16.4652672313033044  -2.3642063285543351 5.5983083080685629 0.0000000000000000 12.0000000000000000 180
16.5561295849657313  -2.3650136882671249 5.6020842871474716 0.0000000000000000 12.0000000000000000 181
16.6469881980312664  -2.3658171478158421 5.6058426727834370 0.0000000000000000 12.0000000000000000 182
16.7378431501879028  -2.3666166671475373 5.6095832580931857 0.0000000000000000 12.0000000000000000 183
16.8286945216527464  -2.3674122063663638 5.6133058374789790 0.0000000000000000 12.0000000000000000 184
16.9195423931194462  -2.3682037257972959 5.6170102069048511 0.0000000000000000 12.0000000000000000 185
17.0103868457061687  -2.3689911860471149 5.6206961641611688 0.0000000000000000 12.0000000000000000 186
17.1012279609041613  -2.3697745480626997 5.6243635091176278 0.0000000000000000 12.0000000000000000 187
17.1920658205269525  -2.3705537731867090 5.6280120439650219 0.0000000000000000 12.0000000000000000 188
17.2829005066602051  -2.3713288232106899 5.6316415734459060 0.0000000000000000 12.0000000000000000 189
17.3737321016122515  -2.3720996604256772 5.6352519050744032 0.0000000000000000 12.0000000000000000 190
17.4645606878653403  -2.3728662476703333 5.6388428493453677 0.0000000000000000 12.0000000000000000 191
17.5553863480276533  -2.3736285483766855 5.6424142199330891 0.0000000000000000 12.0000000000000000 192
17.6462091647860575  -2.3743865266135065 5.6459658338797380 0.0000000000000000 12.0000000000000000 193
17.7370292208597107  -2.3751401471273952 5.6494975117737836 0.0000000000000000 12.0000000000000000 194
17.8278465989544124  -2.3758893753816084 5.6530090779185471 0.0000000000000000 12.0000000000000000 195
