 # inv_tmp, energy, phys_var, phys_doublon, phys_num, step_i
0.1103992683171028  -0.1160620943188325 1.1457912554816312 0.0000000000000000 11.9999999999999982 1
0.2192918507356701  -0.2405319056817932 1.1764967653045135 0.0000000000000000 12.0000000000000018 2
0.3267537416955338  -0.3624523130656154 1.2289055103329163 0.0000000000000000 12.0000000000000000 3
0.4328749240987591  -0.4810890043028331 1.3012612360669316 0.0000000000000000 11.9999999999999982 4
0.5377553689899992  -0.5958161957207230 1.3913960162211123 0.0000000000000000 12.0000000000000000 5
0.6415012383555835  -0.7061213330790380 1.4968611461954000 0.0000000000000000 12.0000000000000000 6
0.7442214625289407  -0.8116047505893853 1.6150569320452275 0.0000000000000000 12.0000000000000036 7
0.8460247893759493  -0.9119753947186713 1.7433519354634368 0.0000000000000000 12.0000000000000000 8
0.9470173443893780  -1.0070436477656246 1.8791850822339167 0.0000000000000000 12.0000000000000018 9
1.0473007002907493  -1.0967121424130095 2.0201469307229614 0.0000000000000000 12.0000000000000000 10
1.1469704288789893  -1.1809653030916127 2.1640389554886732 0.0000000000000000 12.0000000000000000 11
1.2461150924920019  -1.2598582142235339 2.3089117208607686 0.0000000000000000 11.9999999999999982 12
1.3448156238441757  -1.3335053066074647 2.4530842296684541 0.0000000000000000 12.0000000000000018 13
1.4431450386595288  -1.4020692653372637 2.5951475603394361 0.0000000000000000 12.0000000000000000 14
1.5411684240828079  -1.4657504859365604 2.7339562379366820 0.0000000000000000 12.0000000000000000 15
1.6389431467112878  -1.5247773323994624 2.8686107358685389 0.0000000000000000 11.9999999999999982 16
1.7365192269471352  -1.5793973786131101 2.9984341943511472 0.0000000000000000 12.0000000000000000 17
1.8339398309343564  -1.6298697442318519 3.1229459780079711 0.0000000000000000 12.0000000000000000 18
1.9312418372168576  -1.6764585706999713 3.2418341676875437 0.0000000000000000 12.0000000000000000 19
2.0284564419363584  -1.7194276263660475 3.3549285572160867 0.0000000000000000 12.0000000000000036 20
2.1256097733535655  -1.7590359841716285 3.4621752484481361 0.0000000000000000 12.0000000000000000 21
2.2227234932460269  -1.7955346824283391 3.5636135321797351 0.0000000000000000 12.0000000000000018 22
2.3198153689402847  -1.8291642584527201 3.6593554175073719 0.0000000000000000 12.0000000000000018 23
2.4168998051327235  -1.8601530349182540 3.7495679265573041 0.0000000000000000 11.9999999999999982 24
2.5139883291266152  -1.8887160376637508 3.8344580970326296 0.0000000000000000 12.0000000000000036 25
2.6110900266496713  -1.9150544290967906 3.9142605202572236 0.0000000000000000 11.9999999999999982 26
2.7082119280788794  -1.9393553510806310 3.9892271749392405 0.0000000000000000 12.0000000000000000 27
2.8053593467944937  -1.9617920834233429 4.0596192849675683 0.0000000000000000 12.0000000000000000 28
2.9025361726409327  -1.9825244373190665 4.1257009229244543 0.0000000000000000 12.0000000000000000 29
2.9997451242193924  -2.0016993162422336 4.1877340912286378 0.0000000000000000 11.9999999999999982 30
3.0969879640966753  -2.0194513891448311 4.2459750333690298 0.0000000000000000 12.0000000000000018 31
3.1942656810927068  -2.0359038319275404 4.3006715536966578 0.0000000000000000 12.0000000000000018 32
3.2915786436926764  -2.0511691028465076 4.3520611522887638 0.0000000000000000 12.0000000000000000 33
3.3889267283879145  -2.0653497257366373 4.4003698091982004 0.0000000000000000 12.0000000000000000 34
3.4863094264350885  -2.0785390617430677 4.4458112785352544 0.0000000000000000 12.0000000000000000 35
3.5837259321744135  -2.0908220557798773 4.4885867765101306 0.0000000000000000 12.0000000000000000 36
3.6811752156914350  -2.1022759483347730 4.5288849684452916 0.0000000000000000 12.0000000000000000 37
3.7786560822613935  -2.1129709466749516 4.5668821777926105 0.0000000000000000 11.9999999999999982 38
3.8761672206913751  -2.1229708521417936 4.6027427554876921 0.0000000000000000 12.0000000000000000 39
3.9737072423796551  -2.1323336421965484 4.6366195607728855 0.0000000000000000 12.0000000000000000 40
4.0712747126464164  -2.1411120073246606 4.6686545152004406 0.0000000000000000 12.0000000000000000 41
4.1688681756557688  -2.1493538439331168 4.6989792001803234 0.0000000000000000 12.0000000000000000 42
4.2664861740444646  -2.1571027050757583 4.7277154754466633 0.0000000000000000 12.0000000000000000 43
4.3641272641958437  -2.1643982112916937 4.7549761014444218 0.0000000000000000 11.9999999999999982 44
4.4617900279457006  -2.1712764241032314 4.7808653531172940 0.0000000000000000 12.0000000000000000 45
4.5594730813773001  -2.1777701848409974 4.8054796161130220 0.0000000000000000 11.9999999999999982 46
4.6571750812529524  -2.1839094214835724 4.8289079591875703 0.0000000000000000 11.9999999999999982 47
4.7548947295366979  -2.1897214261468942 4.8512326787321136 0.0000000000000000 11.9999999999999982 48
4.8526307763846068  -2.1952311057577907 4.8725298129892138 0.0000000000000000 12.0000000000000000 49
4.9503820219136703  -2.2004612083135733 4.8928696247679957 0.0000000000000000 12.0000000000000000 50
5.0481473170053555  -2.2054325269786483 4.9123170523955366 0.0000000000000000 12.0000000000000018 51
5.1459255633542274  -2.2101640841090040 4.9309321293202117 0.0000000000000000 12.0000000000000000 52
5.2437157129337946  -2.2146732971330954 4.9487703732669184 0.0000000000000000 12.0000000000000000 53
5.3415167670200958  -2.2189761280578391 4.9658831461772515 0.0000000000000000 12.0000000000000000 54
5.4393277748871904  -2.2230872182144514 4.9823179863851221 0.0000000000000000 12.0000000000000000 55
5.5371478322669052  -2.2270200097127022 4.9981189146069926 0.0000000000000000 12.0000000000000000 56
5.6349760796471591  -2.2307868549351939 5.0133267153884118 0.0000000000000000 12.0000000000000000 57
5.7328117004683028  -2.2343991152760467 5.0279791956614845 0.0000000000000000 12.0000000000000000 58
5.8306539192646145  -2.2378672502110430 5.0421114220450072 0.0000000000000000 12.0000000000000036 59
5.9285019997880353  -2.2412008976787758 5.0557559384706376 0.0000000000000000 12.0000000000000000 60
6.0263552431429490  -2.2444089466542714 5.0689429656526217 0.0000000000000000 11.9999999999999982 61
6.1242129859540348  -2.2474996027074292 5.0817005838414824 0.0000000000000000 12.0000000000000000 62
6.2220745985837338  -2.2504804472579085 5.0940549002183504 0.0000000000000000 12.0000000000000000 63
6.3199394834113800  -2.2533584911651858 5.1060302021998023 0.0000000000000000 11.9999999999999982 64
6.4178070731824484  -2.2561402232267316 5.1176490978356899 0.0000000000000000 12.0000000000000018 65
6.5156768294334393  -2.2588316540981452 5.1289326443964338 0.0000000000000000 12.0000000000000000 66
6.6135482409956605  -2.2614383560958915 5.1399004661630059 0.0000000000000000 11.9999999999999982 67
6.7114208225792540  -2.2639654992955851 5.1505708623529518 0.0000000000000000 12.0000000000000000 68
6.8092941134374509  -2.2664178842959664 5.1609609060403283 0.0000000000000000 12.0000000000000000 69
6.9071676761098955  -2.2687999719803744 5.1710865348562756 0.0000000000000000 11.9999999999999964 70
7.0050410952430280  -2.2711159105731928 5.1809626341905046 0.0000000000000000 12.0000000000000000 71
7.1029139764849116  -2.2733695602579553 5.1906031135520951 0.0000000000000000 12.0000000000000000 72
7.2007859454514342  -2.2755645155963466 5.2000209766909080 0.0000000000000000 12.0000000000000000 73
7.2986566467604916  -2.2777041259626607 5.2092283860279185 0.0000000000000000 12.0000000000000000 74
7.3965257431305860  -2.2797915141862761 5.2182367218943320 0.0000000000000000 12.0000000000000000 75
7.4943929145401862  -2.2818295935750070 5.2270566370346483 0.0000000000000000 12.0000000000000000 76
7.5922578574441086  -2.2838210834745336 5.2356981067880444 0.0000000000000000 12.0000000000000000 77
7.6901202840432825  -2.2857685235033660 5.2441704753251113 0.0000000000000000 11.9999999999999982 78
7.7879799216042800  -2.2876742865886692 5.2524824982828910 0.0000000000000000 12.0000000000000000 79
7.8858365118251097  -2.2895405909156210 5.2606423821100812 0.0000000000000000 11.9999999999999982 80
7.9836898102439067  -2.2913695108917054 5.2686578204060384 0.0000000000000000 12.0000000000000000 81
8.0815395856873078  -2.2931629872171619 5.2765360275114173 0.0000000000000000 12.0000000000000000 82
8.1793856197554060  -2.2949228361437770 5.2842837695849250 0.0000000000000000 12.0000000000000036 83
8.2772277063404118  -2.2966507579960451 5.2919073933793932 0.0000000000000000 12.0000000000000000 84
8.3750656511762749  -2.2983483450214561 5.2994128529110789 0.0000000000000000 12.0000000000000018 85
8.4728992714166722  -2.3000170886301037 5.3068057341985710 0.0000000000000000 12.0000000000000000 86
8.5707283952389766  -2.3016583860779773 5.3140912782317802 0.0000000000000000 12.0000000000000000 87
8.6685528614719516  -2.3032735466430045 5.3212744023170657 0.0000000000000000 12.0000000000000000 88
8.7663725192450865  -2.3048637973381982 5.3283597199314441 0.0000000000000000 12.0000000000000000 89
8.8641872276576077  -2.3064302882020256 5.3353515592069787 0.0000000000000000 12.0000000000000000 90
8.9619968554654186  -2.3079740972022798 5.3422539801556530 0.0000000000000000 12.0000000000000036 91
9.0598012807842512  -2.3094962347863146 5.3490707907352428 0.0000000000000000 12.0000000000000000 92
9.1576003908075609  -2.3109976481074233 5.3558055618479052 0.0000000000000000 12.0000000000000000 93
9.2553940815377072  -2.3124792249543358 5.3624616413550408 0.0000000000000000 12.0000000000000000 94
9.3531822575291734  -2.3139417974083436 5.3690421671848076 0.0000000000000000 12.0000000000000000 95
9.4509648316426187  -2.3153861452502680 5.3755500796019255 0.0000000000000000 12.0000000000000000 96
9.5487417248087070  -2.3168129991374844 5.3819881327034693 0.0000000000000000 12.0000000000000000 97
9.6465128658006964  -2.3182230435693594 5.3883589051988334 0.0000000000000000 12.0000000000000000 98
9.7442781910149492  -2.3196169196578129 5.3946648105270842 0.0000000000000000 12.0000000000000000 99
9.8420376442585020  -2.3209952277182104 5.4009081063604318 0.0000000000000000 12.0000000000000000 100
9.9397911765429789  -2.3223585296944638 5.4070909035383963 0.0000000000000000 12.0000000000000000 101
10.0375387458842127  -2.3237073514309539 5.4132151744735468 0.0000000000000000 12.0000000000000000 102
10.1352803171069255  -2.3250421848028262 5.4192827610662802 0.0000000000000000 12.0000000000000000 103
10.2330158616539890  -2.3263634897151819 5.4252953821629815 0.0000000000000000 12.0000000000000000 104
10.3307453573997599  -2.3276716959807864 5.4312546405891391 0.0000000000000000 12.0000000000000000 105
10.4284687884670415  -2.3289672050850987 5.4371620297863679 0.0000000000000000 11.9999999999999982 106
10.5261861450473528  -2.3302503918466750 5.4430189400799964 0.0000000000000000 12.0000000000000000 107
10.6238974232241290  -2.3315216059803183 5.4488266646016843 0.0000000000000000 12.0000000000000000 108
10.7216026247985514  -2.3327811735697503 5.4545864048896444 0.0000000000000000 12.0000000000000000 109
10.8193017571178043  -2.3340293984559901 5.4602992761872073 0.0000000000000000 11.9999999999999982 110
10.9169948329054876  -2.3352665635471537 5.4659663124589049 0.0000000000000000 12.0000000000000000 111
11.0146818700940123  -2.3364929320548891 5.4715884711416711 0.0000000000000000 12.0000000000000000 112
11.1123628916588348  -2.3377087486622812 5.4771666376475183 0.0000000000000000 12.0000000000000018 113
11.2100379254543867  -2.3389142406276271 5.4827016296326860 0.0000000000000000 12.0000000000000018 114
11.3077070040515579  -2.3401096188281922 5.4881942010472171 0.0000000000000000 11.9999999999999982 115
11.4053701645767109  -2.3412950787476881 5.4936450459778161 0.0000000000000000 12.0000000000000036 116
11.5030274485521176  -2.3424708014109368 5.4990548022959036 0.0000000000000000 12.0000000000000000 117
11.6006789017377354  -2.3436369542689559 5.5044240551219543 0.0000000000000000 11.9999999999999982 118
11.6983245739743804  -2.3447936920373906 5.5097533401163181 0.0000000000000000 12.0000000000000000 119
11.7959645190281961  -2.3459411574910591 5.5150431466060592 0.0000000000000000 12.0000000000000000 120
11.8935987944364339  -2.3470794822171350 5.5202939205566643 0.0000000000000000 12.0000000000000000 121
11.9912274613545797  -2.3482087873293280 5.5255060673968295 0.0000000000000000 12.0000000000000000 122
12.0888505844048080  -2.3493291841452395 5.5306799547039729 0.0000000000000000 12.0000000000000000 123
12.1864682315258044  -2.3504407748289209 5.5358159147576238 0.0000000000000000 12.0000000000000000 124
12.2840804738239751  -2.3515436530005247 5.5409142469673371 0.0000000000000000 12.0000000000000018 125
12.3816873854261242  -2.3526379043147894 5.5459752201813304 0.0000000000000000 12.0000000000000000 126
12.4792890433335764  -2.3537236070100143 5.5509990748816946 0.0000000000000000 11.9999999999999982 127
12.5768855272778648  -2.3548008324290195 5.5559860252715669 0.0000000000000000 12.0000000000000000 128
12.6744769195780123  -2.3558696455135393 5.5609362612593900 0.0000000000000000 12.0000000000000000 129
12.7720633049994241  -2.3569301052733649 5.5658499503450400 0.0000000000000000 11.9999999999999964 130
12.8696447706145403  -2.3579822652314899 5.5707272394123102 0.0000000000000000 12.0000000000000000 131
12.9672214056652368  -2.3590261738464107 5.5755682564319340 0.0000000000000000 12.0000000000000000 132
13.0647933014270681  -2.3600618749126960 5.5803731120792044 0.0000000000000000 12.0000000000000000 133
13.1623605510754160  -2.3610894079408364 5.5851419012698500 0.0000000000000000 11.9999999999999982 134
13.2599232495536299  -2.3621088085173527 5.5898747046177819 0.0000000000000000 12.0000000000000000 135
13.3574814934431618  -2.3631201086460583 5.5945715898179902 0.0000000000000000 12.0000000000000000 136
13.4550353808358452  -2.3641233370713541 5.5992326129578212 0.0000000000000000 12.0000000000000000 137
13.5525850112083326  -2.3651185195843434 5.6038578197595816 0.0000000000000000 12.0000000000000018 138
13.6501304852987371  -2.3661056793125521 5.6084472467573558 0.0000000000000000 12.0000000000000000 139
13.7476719049855927  -2.3670848369939659 5.6130009224107349 0.0000000000000000 11.9999999999999982 140
13.8452093731691512  -2.3680560112360767 5.6175188681580259 0.0000000000000000 12.0000000000000036 141
13.9427429936550897  -2.3690192187605854 5.6220010994113956 0.0000000000000000 12.0000000000000000 142
14.0402728710406599  -2.3699744746343923 5.6264476264963399 0.0000000000000000 12.0000000000000018 143
14.1377991106033800  -2.3709217924874437 5.6308584555376200 0.0000000000000000 11.9999999999999982 144
14.2353218181922401  -2.3718611847180178 5.6352335892939314 0.0000000000000000 12.0000000000000036 145
14.3328411001215468  -2.3727926626859595 5.6395730279432392 0.0000000000000000 12.0000000000000000 146
14.4303570630673903  -2.3737162368944089 5.6438767698208476 0.0000000000000000 11.9999999999999982 147
14.5278698139667934  -2.3746319171604737 5.6481448121120303 0.0000000000000000 12.0000000000000000 148
14.6253794599195714  -2.3755397127753382 5.6523771515010459 0.0000000000000000 11.9999999999999982 149
14.7228861080929558  -2.3764396326542503 5.6565737847783240 0.0000000000000000 12.0000000000000018 150
14.8203898656289432  -2.3773316854768072 5.6607347094074560 0.0000000000000000 12.0000000000000000 151
14.9178908395544791  -2.3782158798179620 5.6648599240536468 0.0000000000000000 12.0000000000000000 152
15.0153891366944379  -2.3790922242701442 5.6689494290751874 0.0000000000000000 12.0000000000000000 153
15.1128848635874125  -2.3799607275568628 5.6730032269794277 0.0000000000000000 12.0000000000000000 154
15.2103781264043576  -2.3808213986381777 5.6770213228447712 0.0000000000000000 12.0000000000000000 155
15.3078690308700693  -2.3816742468083767 5.6810037247100489 0.0000000000000000 12.0000000000000000 156
15.4053576821875087  -2.3825192817861960 5.6849504439326637 0.0000000000000000 12.0000000000000036 157
15.5028441849649674  -2.3833565137979256 5.6888614955168206 0.0000000000000000 12.0000000000000000 158
15.6003286431460850  -2.3841859536537058 5.6927368984131483 0.0000000000000000 11.9999999999999982 159
15.6978111599426775  -2.3850076128173110 5.6965766757909027 0.0000000000000000 12.0000000000000018 160
15.7952918377704083  -2.3858215034697352 5.7003808552840143 0.0000000000000000 12.0000000000000000 161
15.8927707781872645  -2.3866276385668463 5.7041494692121049 0.0000000000000000 12.0000000000000036 162
15.9902480818347907  -2.3874260318913909 5.7078825547776191 0.0000000000000000 11.9999999999999982 163
16.0877238483821294  -2.3882166980996162 5.7115801542401883 0.0000000000000000 12.0000000000000000 164
16.1851981764727846  -2.3889996527627586 5.7152423150692337 0.0000000000000000 12.0000000000000018 165
16.2826711636740704  -2.3897749124036554 5.7188690900759180 0.0000000000000000 12.0000000000000000 166
16.3801429064293131  -2.3905424945287153 5.7224605375253903 0.0000000000000000 12.0000000000000018 167
16.4776135000126231  -2.3913024176554796 5.7260167212303159 0.0000000000000000 12.0000000000000000 168
16.5750830384863441  -2.3920547013359967 5.7295377106266354 0.0000000000000000 12.0000000000000000 169
16.6725516146610282  -2.3927993661762343 5.7330235808324659 0.0000000000000000 12.0000000000000000 170
16.7700193200579903  -2.3935364338517275 5.7364744126910114 0.0000000000000000 12.0000000000000000 171
16.8674862448743141  -2.3942659271196756 5.7398902927983926 0.0000000000000000 12.0000000000000018 172
16.9649524779503302  -2.3949878698276765 5.7432713135171420 0.0000000000000000 11.9999999999999982 173
17.0624181067395000  -2.3957022869192945 5.7466175729762750 0.0000000000000000 12.0000000000000000 174
17.1598832172806119  -2.3964092044366381 5.7499291750586226 0.0000000000000000 12.0000000000000036 175
17.2573478941723124  -2.3971086495201224 5.7532062293762269 0.0000000000000000 12.0000000000000000 176
17.3548122205499062  -2.3978006504056042 5.7564488512345493 0.0000000000000000 12.0000000000000000 177
17.4522762780642715  -2.3984852364190226 5.7596571615861318 0.0000000000000000 11.9999999999999982 178
17.5497401468630159  -2.3991624379687364 5.7628312869744613 0.0000000000000000 12.0000000000000000 179
17.6472039055736474  -2.3998322865356876 5.7659713594686473 0.0000000000000000 12.0000000000000000 180
17.7446676312888059  -2.4004948146615539 5.7690775165895838 0.0000000000000000 11.9999999999999982 181
17.8421313995534625  -2.4011500559350147 5.7721499012281701 0.0000000000000000 11.9999999999999964 182
17.9395952843540343  -2.4017980449762888 5.7751886615562302 0.0000000000000000 12.0000000000000000 183
18.0370593581093601  -2.4024388174200508 5.7781939509306337 0.0000000000000000 12.0000000000000000 184
18.1345236916634605  -2.4030724098968754 5.7811659277912453 0.0000000000000000 12.0000000000000000 185
18.2319883542800589  -2.4036988600133116 5.7841047555531464 0.0000000000000000 11.9999999999999982 186
18.3294534136387597  -2.4043182063307138 5.7870106024937087 0.0000000000000000 12.0000000000000000 187
18.4269189358328731  -2.4049304883429365 5.7898836416349404 0.0000000000000000 12.0000000000000000 188
18.5243849853687834  -2.4055357464530021 5.7927240506216284 0.0000000000000000 12.0000000000000018 189
18.6218516251668262  -2.4061340219488367 5.7955320115956619 0.0000000000000000 11.9999999999999982 190
18.7193189165636049  -2.4067253569781890 5.7983077110670376 0.0000000000000000 12.0000000000000000 191
18.8167869193157138  -2.4073097945227939 5.8010513397818588 0.0000000000000000 11.9999999999999964 192
18.9142556916047653  -2.4078873783719104 5.8037630925878343 0.0000000000000000 12.0000000000000018 193
19.0117252900436995  -2.4084581530952760 5.8064431682975233 0.0000000000000000 12.0000000000000000 194
19.1091957696843018  -2.4090221640155987 5.8090917695497950 0.0000000000000000 12.0000000000000036 195
