 # inv_tmp, energy, phys_var, phys_doublon, phys_num, step_i
0.1103917088596131  -0.1173026548889792 1.0975397716323900 0.0000000000000000 12.0000000000000000 1
0.2193426772603994  -0.2363051730752639 1.1220022304175694 0.0000000000000000 11.9999999999999982 2
0.3269320180461097  -0.3524392497824260 1.1667897522568489 0.0000000000000000 12.0000000000000000 3
0.4332489879026325  -0.4651325759078372 1.2301774875650391 0.0000000000000000 12.0000000000000000 4
0.5383895016682743  -0.5739134381588400 1.3101361588563656 0.0000000000000000 12.0000000000000000 5
0.6424529963600497  -0.6784092657182417 1.4044446571841409 0.0000000000000000 12.0000000000000000 6
0.7455397248427948  -0.7783420969983238 1.5107950682310483 0.0000000000000000 12.0000000000000000 7
0.8477485074473967  -0.8735218752276088 1.6268845078828251 0.0000000000000000 11.9999999999999964 8
0.9491749349521622  -0.9638383159656307 1.7504905386179064 0.0000000000000000 11.9999999999999982 9
1.0499099950042532  -1.0492519312752888 1.8795290096761144 0.0000000000000000 12.0000000000000000 10
1.1500390821514663  -1.1297846668331553 2.0120947738695723 0.0000000000000000 11.9999999999999982 11
1.2496413456483753  -1.2055105119362266 2.1464868514217894 0.0000000000000000 12.0000000000000000 12
1.3487893267350481  -1.2765463698745263 2.2812202772232419 0.0000000000000000 12.0000000000000036 13
1.4475488368795026  -1.3430434170082428 2.4150271606951343 0.0000000000000000 12.0000000000000000 14
1.5459790299419609  -1.4051791253121060 2.5468494983047583 0.0000000000000000 12.0000000000000018 15
1.6441326240825993  -1.4631500715190189 2.6758260962731830 0.0000000000000000 12.0000000000000018 16
1.7420562332642155  -1.5171656062397973 2.8012756624001520 0.0000000000000000 12.0000000000000000 17
1.8397907731021703  -1.5674424104750031 2.9226777731477540 0.0000000000000000 12.0000000000000000 18
1.9373719112238381  -1.6141999271556444 3.0396530610207582 0.0000000000000000 12.0000000000000000 19
2.0348305378386176  -1.6576566235769792 3.1519436287727909 0.0000000000000000 12.0000000000000000 20
2.1321932375466481  -1.6980270176291290 3.2593943993237122 0.0000000000000000 11.9999999999999982 21
2.2294827482686466  -1.7355193863550455 3.3619358618868587 0.0000000000000000 12.0000000000000018 22
2.3267183973953975  -1.7703340685722291 3.4595684769715116 0.0000000000000000 12.0000000000000000 23
2.4239165087598327  -1.8026622726203629 3.5523488523318485 0.0000000000000000 12.0000000000000000 24
2.5210907768280055  -1.8326853041401279 3.6403776926759428 0.0000000000000000 12.0000000000000000 25
2.6182526066408505  -1.8605741356311043 3.7237894510447997 0.0000000000000000 12.0000000000000000 26
2.7154114196002825  -1.8864892480819642 3.8027435621869898 0.0000000000000000 12.0000000000000018 27
2.8125749262776862  -1.9105806841965391 3.8774171115274925 0.0000000000000000 12.0000000000000000 28
2.9097493681270179  -1.9329882619182830 3.9479987818900462 0.0000000000000000 12.0000000000000000 29
3.0069397303971659  -1.9538419055958314 4.0146839194084620 0.0000000000000000 11.9999999999999982 30
3.1041499287352416  -1.9732620599486803 4.0776705664507649 0.0000000000000000 11.9999999999999982 31
3.2013829720166984  -1.9913601588514249 4.1371563201425463 0.0000000000000000 12.0000000000000036 32
3.2986411038787771  -2.0082391268308939 4.1933358882039951 0.0000000000000000 12.0000000000000018 33
3.3959259253083629  -2.0239938961051815 4.2463992278887144 0.0000000000000000 12.0000000000000000 34
3.4932385004714037  -2.0387119260690829 4.2965301678691157 0.0000000000000000 12.0000000000000000 35
3.5905794477881545  -2.0524737154480674 4.3439054263356853 0.0000000000000000 12.0000000000000000 36
3.6879490180702281  -2.0653533000088924 4.3886939510000040 0.0000000000000000 11.9999999999999982 37
3.7853471613505358  -2.0774187308317371 4.4310565179273338 0.0000000000000000 12.0000000000000000 38
3.8827735838612023  -2.0887325298101320 4.4711455361092085 0.0000000000000000 12.0000000000000000 39
3.9802277964505821  -2.0993521203336662 4.5091050134355068 0.0000000000000000 12.0000000000000000 40
4.0777091555801226  -2.1093302320955036 4.5450706473044002 0.0000000000000000 12.0000000000000000 41
4.1752168979053508  -2.1187152797119735 4.5791700096111629 0.0000000000000000 12.0000000000000018 42
4.2727501693225252  -2.1275517153945627 4.6115228013900698 0.0000000000000000 12.0000000000000036 43
4.3703080492528299  -2.1358803563160542 4.6422411570580158 0.0000000000000000 12.0000000000000000 44
4.4678895708383264  -2.1437386875953974 4.6714299821316541 0.0000000000000000 12.0000000000000000 45
4.5654937376374658  -2.1511611420165515 4.6991873115625680 0.0000000000000000 11.9999999999999982 46
4.6631195373315331  -2.1581793577162789 4.7256046785496562 0.0000000000000000 12.0000000000000000 47
4.7607659528861008  -2.1648224151414719 4.7507674859268771 0.0000000000000000 11.9999999999999964 48
4.8584319715523359  -2.1711170546013925 4.7747553740609590 0.0000000000000000 12.0000000000000000 49
4.9561165920411048  -2.1770878757346681 4.7976425806911651 0.0000000000000000 12.0000000000000000 50
5.0538188301572564  -2.1827575201832343 4.8194982893568765 0.0000000000000000 12.0000000000000000 51
5.1515377231416846  -2.1881468387220115 4.8403869640358286 0.0000000000000000 11.9999999999999982 52
5.2492723329339848  -2.1932750440389608 4.8603686683965694 0.0000000000000000 12.0000000000000036 53
5.3470217485381974  -2.1981598502990396 4.8794993686873394 0.0000000000000000 12.0000000000000000 54
5.4447850876477890  -2.2028176005604818 4.8978312197687872 0.0000000000000000 12.0000000000000000 55
5.5425614976630051  -2.2072633830448765 4.9154128341739725 0.0000000000000000 12.0000000000000018 56
5.6403501562139260  -2.2115111371954770 4.9322895343662241 0.0000000000000000 12.0000000000000000 57
5.7381502712852592  -2.2155737503921706 4.9485035885803867 0.0000000000000000 12.0000000000000036 58
5.8359610810240428  -2.2194631461274952 4.9640944307898280 0.0000000000000000 12.0000000000000000 59
5.9337818532985613  -2.2231903643866797 4.9790988654519222 0.0000000000000000 12.0000000000000000 60
6.0316118850657663  -2.2267656349161382 4.9935512577579040 0.0000000000000000 12.0000000000000000 61
6.1294505015949259  -2.2301984440096767 5.0074837101571354 0.0000000000000000 12.0000000000000000 62
6.2272970555871447  -2.2334975953897258 5.0209262259470453 0.0000000000000000 11.9999999999999982 63
6.3251509262234196  -2.2366712657124541 5.0339068607236825 0.0000000000000000 12.0000000000000000 64
6.4230115181679706  -2.2397270551804622 5.0464518624781487 0.0000000000000000 12.0000000000000000 65
6.5208782605485238  -2.2426720337049240 5.0585858011046145 0.0000000000000000 12.0000000000000000 66
6.6187506059310195  -2.2455127830203265 5.0703316880587685 0.0000000000000000 11.9999999999999982 67
6.7166280293025471  -2.2482554351193129 5.0817110868737654 0.0000000000000000 12.0000000000000018 68
6.8145100270733048  -2.2509057073422807 5.0927442152056805 0.0000000000000000 12.0000000000000000 69
6.9123961161058993  -2.2534689344263228 5.1034500390434951 0.0000000000000000 12.0000000000000018 70
7.0102858327780790  -2.2559500977904317 5.1138463596807719 0.0000000000000000 12.0000000000000000 71
7.1081787320833687  -2.2583538523087183 5.1239498940083621 0.0000000000000000 12.0000000000000000 72
7.2060743867725447  -2.2606845508002653 5.1337763486501480 0.0000000000000000 11.9999999999999982 73
7.3039723865377617  -2.2629462664432602 5.1433404884275919 0.0000000000000000 11.9999999999999982 74
7.4018723372401567  -2.2651428133018308 5.1526561996039462 0.0000000000000000 12.0000000000000000 75
7.4997738601810449  -2.2672777651366021 5.1617365483256421 0.0000000000000000 12.0000000000000036 76
7.5976765914161444  -2.2693544726540766 5.1705938346467741 0.0000000000000000 12.0000000000000000 77
7.6955801811118700  -2.2713760793355631 5.1792396424927958 0.0000000000000000 12.0000000000000000 78
7.7934842929423382  -2.2733455359732253 5.1876848858915352 0.0000000000000000 12.0000000000000000 79
7.8913886035254590  -2.2752656140289904 5.1959398517735362 0.0000000000000000 12.0000000000000018 80
7.9892928018963314  -2.2771389179212225 5.2040142396193225 0.0000000000000000 11.9999999999999982 81
8.0871965890160027  -2.2789678963343283 5.2119171982086030 0.0000000000000000 11.9999999999999982 82
8.1850996773136000  -2.2807548526375689 5.2196573597054154 0.0000000000000000 12.0000000000000000 83
8.2830017902598154  -2.2825019544913410 5.2272428712939174 0.0000000000000000 12.0000000000000000 84
8.3809026619696940  -2.2842112427119261 5.2346814245616162 0.0000000000000000 12.0000000000000000 85
8.4788020368327555  -2.2858846394590868 5.2419802828103439 0.0000000000000000 11.9999999999999982 86
8.5766996691684660  -2.2875239558049900 5.2491463064602666 0.0000000000000000 12.0000000000000000 87
8.6745953229052351  -2.2891308987374548 5.2561859766981689 0.0000000000000000 12.0000000000000018 88
8.7724887712810418  -2.2907070776457386 5.2631054175086760 0.0000000000000000 12.0000000000000000 89
8.8703797965640572  -2.2922540103325719 5.2699104162152572 0.0000000000000000 12.0000000000000000 90
8.9682681897915568  -2.2937731285921883 5.2766064426472283 0.0000000000000000 11.9999999999999982 91
9.0661537505256220  -2.2952657833904873 5.2831986670392128 0.0000000000000000 12.0000000000000018 92
9.1640362866241567  -2.2967332496801554 5.2896919767604800 0.0000000000000000 12.0000000000000000 93
9.2619156140258703  -2.2981767308806385 5.2960909919635100 0.0000000000000000 12.0000000000000000 94
9.3597915565479592  -2.2995973630501503 5.3024000802335749 0.0000000000000000 12.0000000000000000 95
9.4576639456952982  -2.3009962187744812 5.3086233703143453 0.0000000000000000 12.0000000000000000 96
9.5555326204800828  -2.3023743107951629 5.3147647649782996 0.0000000000000000 12.0000000000000000 97
9.6533974272508516  -2.3037325953975523 5.3208279531049829 0.0000000000000000 12.0000000000000000 98
9.7512582195300315  -2.3050719755776030 5.3268164210250353 0.0000000000000000 12.0000000000000000 99
9.8491148578590835  -2.3063933040044082 5.3327334631830778 0.0000000000000000 12.0000000000000018 100
9.9469672096505004  -2.3076973857941914 5.3385821921682979 0.0000000000000000 12.0000000000000000 101
10.0448151490459363  -2.3089849811099854 5.3443655481575716 0.0000000000000000 12.0000000000000000 102
10.1426585567797893  -2.3102568076000871 5.3500863078123384 0.0000000000000000 12.0000000000000018 103
10.2404973200476448  -2.3115135426872264 5.3557470926672135 0.0000000000000000 11.9999999999999982 104
10.3383313323790560  -2.3127558257193956 5.3613503770452091 0.0000000000000000 11.9999999999999964 105
10.4361604935141212  -2.3139842599923641 5.3668984955317729 0.0000000000000000 11.9999999999999982 106
10.5339847092834731  -2.3151994146530672 5.3723936500372620 0.0000000000000000 11.9999999999999964 107
10.6318038914912023  -2.3164018264923181 5.3778379164752330 0.0000000000000000 12.0000000000000000 108
10.7296179578003983  -2.3175920016345701 5.3832332510817356 0.0000000000000000 11.9999999999999982 109
10.8274268316209685  -2.3187704171318702 5.3885814963989649 0.0000000000000000 11.9999999999999982 110
10.9252304419994424  -2.3199375224685364 5.3938843869447819 0.0000000000000000 12.0000000000000000 111
11.0230287235104747  -2.3210937409825876 5.3991435545880169 0.0000000000000000 12.0000000000000018 112
11.1208216161498417  -2.3222394712094863 5.4043605336480152 0.0000000000000000 12.0000000000000000 113
11.2186090652287138  -2.3233750881532971 5.4095367657354627 0.0000000000000000 12.0000000000000000 114
11.3163910212690038  -2.3245009444899996 5.4146736043503347 0.0000000000000000 12.0000000000000000 115
11.4141674398996447  -2.3256173717072937 5.4197723192516172 0.0000000000000000 12.0000000000000036 116
11.5119382817536646  -2.3267246811849418 5.4248341006124345 0.0000000000000000 12.0000000000000018 117
11.6097035123658916  -2.3278231652193671 5.4298600629732121 0.0000000000000000 12.0000000000000000 118
11.7074631020712250  -2.3289130979959474 5.4348512490046197 0.0000000000000000 12.0000000000000000 119
11.8052170259033797  -2.3299947365122065 5.4398086330912427 0.0000000000000000 12.0000000000000000 120
11.9029652634939804  -2.3310683214548567 5.4447331247461115 0.0000000000000000 12.0000000000000000 121
12.0007077989719910  -2.3321340780334330 5.4496255718655924 0.0000000000000000 11.9999999999999982 122
12.0984446208634111  -2.3331922167730781 5.4544867638334473 0.0000000000000000 12.0000000000000000 123
12.1961757219911728  -2.3342429342688269 5.4593174344822746 0.0000000000000000 12.0000000000000000 124
12.2939010993752422  -2.3352864139036074 5.4641182649200406 0.0000000000000000 12.0000000000000018 125
12.3916207541328767  -2.3363228265319935 5.4688898862288271 0.0000000000000000 12.0000000000000000 126
12.4893346913790122  -2.3373523311316253 5.4736328820425353 0.0000000000000000 12.0000000000000000 127
12.5870429201268124  -2.3383750754240560 5.4783477910097584 0.0000000000000000 12.0000000000000000 128
12.6847454531883432  -2.3393911964666989 5.4830351091477212 0.0000000000000000 11.9999999999999964 129
12.7824423070753692  -2.3404008212174126 5.4876952920927522 0.0000000000000000 12.0000000000000000 130
12.8801335019002998  -2.3414040670731566 5.4923287572524053 0.0000000000000000 12.0000000000000000 131
12.9778190612773301  -2.3424010423840844 5.4969358858640796 0.0000000000000000 12.0000000000000000 132
13.0754990122236983  -2.3433918469443160 5.5015170249646275 0.0000000000000000 12.0000000000000000 133
13.1731733850611832  -2.3443765724605816 5.5060724892751853 0.0000000000000000 12.0000000000000000 134
13.2708422133178310  -2.3453553029998333 5.5106025630052322 0.0000000000000000 11.9999999999999964 135
13.3685055336299037  -2.3463281154168643 5.5151075015795747 0.0000000000000000 11.9999999999999982 136
13.4661633856441210  -2.3472950797629020 5.5195875332918103 0.0000000000000000 12.0000000000000000 137
13.5638158119202625  -2.3482562596760888 5.5240428608875556 0.0000000000000000 12.0000000000000000 138
13.6614628578340493  -2.3492117127547063 5.5284736630805664 0.0000000000000000 12.0000000000000000 139
13.7591045714804796  -2.3501614909139397 5.5328800960046705 0.0000000000000000 12.0000000000000000 140
13.8567410035775751  -2.3511056407269479 5.5372622946042931 0.0000000000000000 12.0000000000000036 141
13.9543722073705965  -2.3520442037509453 5.5416203739661798 0.0000000000000000 12.0000000000000000 142
14.0519982385367612  -2.3529772168389647 5.5459544305947883 0.0000000000000000 12.0000000000000000 143
14.1496191550905710  -2.3539047124379318 5.5502645436336593 0.0000000000000000 12.0000000000000000 144
14.2472350172896629  -2.3548267188736558 5.5545507760349917 0.0000000000000000 12.0000000000000000 145
14.3448458875413767  -2.3557432606232833 5.5588131756795001 0.0000000000000000 12.0000000000000000 146
14.4424518303099738  -2.3566543585757604 5.5630517764485123 0.0000000000000000 12.0000000000000000 147
14.5400529120246027  -2.3575600302808004 5.5672665992502077 0.0000000000000000 12.0000000000000000 148
14.6376492009880401  -2.3584602901868292 5.5714576530017395 0.0000000000000000 11.9999999999999982 149
14.7352407672862729  -2.3593551498683620 5.5756249355689569 0.0000000000000000 12.0000000000000036 150
14.8328276826989214  -2.3602446182432368 5.5797684346652829 0.0000000000000000 12.0000000000000000 151
14.9304100206105996  -2.3611287017801192 5.5838881287113562 0.0000000000000000 12.0000000000000000 152
15.0279878559232358  -2.3620074046966337 5.5879839876567647 0.0000000000000000 11.9999999999999964 153
15.1255612649693560  -2.3628807291485332 5.5920559737653770 0.0000000000000000 11.9999999999999982 154
15.2231303254264621  -2.3637486754102017 5.5961040423654875 0.0000000000000000 12.0000000000000000 155
15.3206951162324536  -2.3646112420468688 5.6001281425661151 0.0000000000000000 12.0000000000000000 156
15.4182557175021877  -2.3654684260788188 5.6041282179405991 0.0000000000000000 12.0000000000000036 157
15.5158122104451941  -2.3663202231379055 5.6081042071786555 0.0000000000000000 12.0000000000000000 158
15.6133646772846095  -2.3671666276166681 5.6120560447080408 0.0000000000000000 12.0000000000000000 159
15.7109132011773251  -2.3680076328103090 5.6159836612867933 0.0000000000000000 11.9999999999999964 160
15.8084578661354165  -2.3688432310518017 5.6198869845671489 0.0000000000000000 11.9999999999999982 161
15.9059987569488879  -2.3696734138403848 5.6237659396320439 0.0000000000000000 12.0000000000000000 162
16.0035359591097439  -2.3704981719636757 5.6276204495051765 0.0000000000000000 12.0000000000000000 163
16.1010695587374322  -2.3713174956136358 5.6314504356355073 0.0000000000000000 12.0000000000000000 164
16.1985996425056982  -2.3721313744966173 5.6352558183570718 0.0000000000000000 12.0000000000000000 165
16.2961262975708401  -2.3729397979376921 5.6390365173249357 0.0000000000000000 12.0000000000000000 166
16.3936496115014592  -2.3737427549794767 5.6427924519281074 0.0000000000000000 11.9999999999999964 167
16.4911696722096437  -2.3745402344756505 5.6465235416801729 0.0000000000000000 12.0000000000000000 168
16.5886865678836735  -2.3753322251793465 5.6502297065884299 0.0000000000000000 12.0000000000000000 169
16.6862003869222590  -2.3761187158266193 5.6539108675022147 0.0000000000000000 12.0000000000000018 170
16.7837112178702874  -2.3768996952151404 5.6575669464411567 0.0000000000000000 12.0000000000000000 171
16.8812191493561627  -2.3776751522783202 5.6611978669040433 0.0000000000000000 12.0000000000000000 172
16.9787242700306820  -2.3784450761549900 5.6648035541589188 0.0000000000000000 12.0000000000000018 173
17.0762266685075446  -2.3792094562548369 5.6683839355151262 0.0000000000000000 12.0000000000000000 174
17.1737264333054043  -2.3799682823197248 5.6719389405778564 0.0000000000000000 12.0000000000000000 175
17.2712236527915763  -2.3807215444810499 5.6754685014858470 0.0000000000000000 12.0000000000000000 176
17.3687184151273399  -2.3814692333132976 5.6789725531328150 0.0000000000000000 12.0000000000000000 177
17.4662108082148713  -2.3822113398839084 5.6824510333731801 0.0000000000000000 11.9999999999999982 178
17.5637009196457790  -2.3829478557996304 5.6859038832126840 0.0000000000000000 12.0000000000000000 179
17.6611888366513448  -2.3836787732494411 5.6893310469843703 0.0000000000000000 12.0000000000000000 180
17.7586746460542741  -2.3844040850442236 5.6927324725105652 0.0000000000000000 12.0000000000000018 181
17.8561584342221984  -2.3851237846532687 5.6961081112512630 0.0000000000000000 12.0000000000000000 182
17.9536402870227434  -2.3858378662377624 5.6994579184395135 0.0000000000000000 11.9999999999999982 183
18.0511202897802150  -2.3865463246813641 5.7027818532042431 0.0000000000000000 12.0000000000000000 184
18.1485985272339505  -2.3872491556179765 5.7060798786810096 0.0000000000000000 11.9999999999999964 185
18.2460750834982370  -2.3879463554568541 5.7093519621111941 0.0000000000000000 11.9999999999999964 186
18.3435500420238604  -2.3886379214051123 5.7125980749299963 0.0000000000000000 12.0000000000000000 187
18.4410234855612245  -2.3893238514877888 5.7158181928437930 0.0000000000000000 12.0000000000000018 188
18.5384954961250941  -2.3900041445655260 5.7190122958971976 0.0000000000000000 12.0000000000000000 189
18.6359661549608404  -2.3906788003499955 5.7221803685303128 0.0000000000000000 12.0000000000000018 190
18.7334355425123071  -2.3913478194171480 5.7253223996265445 0.0000000000000000 12.0000000000000000 191
18.8309037383911750  -2.3920112032183956 5.7284383825514151 0.0000000000000000 12.0000000000000000 192
18.9283708213478619  -2.3926689540898103 5.7315283151827447 0.0000000000000000 11.9999999999999982 193
19.0258368692439248  -2.3933210752594305 5.7345921999326048 0.0000000000000000 12.0000000000000000 194
19.1233019590259303  -2.3939675708527650 5.7376300437614072 0.0000000000000000 12.0000000000000018 195
