 # inv_tmp, energy, phys_var, phys_doublon, phys_num, step_i
0.1019600498018951  -0.1155259230054575 1.1437708912272311 0.0000000000000000 12.0000000000000000 1
0.2027336184103063  -0.2303241138059446 1.1702906729550298 0.0000000000000000 12.0000000000000000 2
0.3023743510577811  -0.3429528794704295 1.2150665820518514 0.0000000000000000 12.0000000000000000 3
0.4009462051894363  -0.4528013894537651 1.2767631128022168 0.0000000000000000 12.0000000000000000 4
0.4985208279204988  -0.5593424385364754 1.3537386727540393 0.0000000000000000 12.0000000000000000 5
0.5951749793647207  -0.6621378855821323 1.4441321883398190 0.0000000000000000 12.0000000000000000 6
0.6909881418035668  -0.7608397351917264 1.5459505292438651 0.0000000000000000 12.0000000000000000 7
0.7860404097332142  -0.8551875983455773 1.6571507709113877 0.0000000000000000 12.0000000000000000 8
0.8804107127754262  -0.9450033817244279 1.7757128553279893 0.0000000000000000 12.0000000000000000 9
0.9741753872955280  -1.0301840518916303 1.8996998735490915 0.0000000000000000 12.0000000000000000 10
1.0674070856166422  -1.1106932363959099 2.0273047410698553 0.0000000000000000 12.0000000000000000 11
1.1601739940320157  -1.1865522959978589 2.1568833175685596 0.0000000000000000 12.0000000000000000 12
1.2525393210903764  -1.2578313608279785 2.2869749682049525 0.0000000000000000 12.0000000000000000 13
1.3445610139542530  -1.3246406889740949 2.4163121724852239 0.0000000000000000 12.0000000000000000 14
1.4362916610731384  -1.3871225901187951 2.5438210990448074 0.0000000000000000 12.0000000000000000 15
1.5277785423383534  -1.4454440635238583 2.6686151418703004 0.0000000000000000 12.0000000000000000 16
1.6190637920809821  -1.4997902283391902 2.7899833217004595 0.0000000000000000 12.0000000000000000 17
1.7101846449295508  -1.5503585719441313 2.9073752565360533 0.0000000000000000 12.0000000000000000 18
1.8011737391744114  -1.5973540050710135 3.0203841477916753 0.0000000000000000 12.0000000000000000 19
1.8920594566312006  -1.6409846872464233 3.1287289519824819 0.0000000000000000 12.0000000000000000 20
1.9828662819374718  -1.6814585696426898 3.2322366387607708 0.0000000000000000 12.0000000000000000 21
2.0736151677149217  -1.7189805924727257 3.3308251915435969 0.0000000000000000 12.0000000000000000 22
2.1643238950847388  -1.7537504688959635 3.4244877960528761 0.0000000000000000 12.0000000000000000 23
2.2550074216536000  -1.7859609857964611 3.5132784882258603 0.0000000000000000 12.0000000000000000 24
2.3456782113185466  -1.8157967528266108 3.5972993956030574 0.0000000000000000 12.0000000000000000 25
2.4363465420996646  -1.8434333340715741 3.6766896024465598 0.0000000000000000 12.0000000000000000 26
2.5270207897318815  -1.8690367010116415 3.7516155941275535 0.0000000000000000 12.0000000000000000 27
2.6177076859646604  -1.8927629506742485 3.8222631858699962 0.0000000000000000 12.0000000000000000 28
2.7084125514659667  -1.9147582385876449 3.8888308099070210 0.0000000000000000 12.0000000000000000 29
2.7991395039399691  -1.9351588820586223 3.9515240190367718 0.0000000000000000 12.0000000000000000 30
2.8898916425816643  -1.9540915951480924 4.0105510595624114 0.0000000000000000 12.0000000000000000 31
2.9806712103396782  -1.9716738223222356 4.0661193694117639 0.0000000000000000 12.0000000000000000 32
3.0714797356720505  -1.9880141429808158 4.1184328652358104 0.0000000000000000 12.0000000000000000 33
3.1623181555872124  -2.0032127238231832 4.1676898934451625 0.0000000000000000 12.0000000000000000 34
3.2531869217882998  -2.0173618002621589 4.2140817329321711 0.0000000000000000 12.0000000000000000 35
3.3440860917046433  -2.0305461718236124 4.2577915505402313 0.0000000000000000 12.0000000000000000 36
3.4350154061172811  -2.0428436996865811 4.2989937234205637 0.0000000000000000 12.0000000000000000 37
3.5259743549800189  -2.0543257972534748 4.3378534547659990 0.0000000000000000 12.0000000000000000 38
3.6169622329152062  -2.0650579069313104 4.3745266207384406 0.0000000000000000 12.0000000000000000 39
3.7079781857326304  -2.0750999581982246 4.4091597965660281 0.0000000000000000 12.0000000000000000 40
3.7990212491873909  -2.0845068035720429 4.4418904187354249 0.0000000000000000 12.0000000000000000 41
3.8900903810628371  -2.0933286303362992 4.4728470479712934 0.0000000000000000 12.0000000000000000 42
3.9811844875408942  -2.1016113468583950 4.5021497043502485 0.0000000000000000 12.0000000000000000 43
4.0723024447064589  -2.1093969430954789 4.5299102515363963 0.0000000000000000 12.0000000000000000 44
4.1634431159260963  -2.1167238254631080 4.5562328118580009 0.0000000000000000 12.0000000000000000 45
4.2546053657446130  -2.1236271266721278 4.5812141978798078 0.0000000000000000 12.0000000000000000 46
4.3457880708562158  -2.1301389914487778 4.6049443493701174 0.0000000000000000 12.0000000000000000 47
4.4369901286295717  -2.1362888392656814 4.6275067672149506 0.0000000000000000 12.0000000000000000 48
4.5282104635977163  -2.1421036053474074 4.6489789379841930 0.0000000000000000 12.0000000000000000 49
4.6194480322637173  -2.1476079612905483 4.6694327445863566 0.0000000000000000 12.0000000000000000 50
4.7107018265205607  -2.1528245166686100 4.6889348598301472 0.0000000000000000 12.0000000000000000 51
4.8019708759382445  -2.1577740029878258 4.7075471208027793 0.0000000000000000 12.0000000000000000 52
4.8932542491316662  -2.1624754413303315 4.7253268828287194 0.0000000000000000 12.0000000000000000 53
4.9845510543890219  -2.1669462949734064 4.7423273524324054 0.0000000000000000 12.0000000000000000 54
5.0758604397113798  -2.1712026082133069 4.7585978992307467 0.0000000000000000 12.0000000000000000 55
5.1671815923891913  -2.1752591325542441 4.7741843470570817 0.0000000000000000 12.0000000000000000 56
5.2585137382203673  -2.1791294413506455 4.7891292448926279 0.0000000000000000 12.0000000000000000 57
5.3498561404565326  -2.1828260339166943 4.8034721183756197 0.0000000000000000 12.0000000000000000 58
5.4412080985488327  -2.1863604300432002 4.8172497027889722 0.0000000000000000 12.0000000000000000 59
5.5325689467517760  -2.1897432557895451 4.8304961585088080 0.0000000000000000 12.0000000000000000 60
5.6239380526327896  -2.1929843213487978 4.8432432699393040 0.0000000000000000 12.0000000000000000 61
5.7153148155260025  -2.1960926917177725 4.8555206289736059 0.0000000000000000 12.0000000000000000 62
5.8066986649611838  -2.1990767508412246 4.8673558040129032 0.0000000000000000 12.0000000000000000 63
5.8980890590923911  -2.2019442598408063 4.8787744955522445 0.0000000000000000 12.0000000000000000 64
5.9894854831455637  -2.2047024098848786 4.8898006793065809 0.0000000000000000 12.0000000000000000 65
6.0808874478999160  -2.2073578702048309 4.9004567378078026 0.0000000000000000 12.0000000000000000 66
6.1722944882143924  -2.2099168317170470 4.9107635813556350 0.0000000000000000 12.0000000000000000 67
6.2637061616073995  -2.2123850466669293 4.9207407591545707 0.0000000000000000 12.0000000000000000 68
6.3551220468956426  -2.2147678646723064 4.9304065614170867 0.0000000000000000 12.0000000000000000 69
6.4465417428959189  -2.2170702655078331 4.9397781131615890 0.0000000000000000 12.0000000000000000 70
6.5379648671920592  -2.2192968889394629 4.9488714603824491 0.0000000000000000 12.0000000000000000 71
6.6293910549680115  -2.2214520618884848 4.9577016492203239 0.0000000000000000 12.0000000000000000 72
6.7208199579069756  -2.2235398231777506 4.9662827987134701 0.0000000000000000 12.0000000000000000 73
6.8122512431557354  -2.2255639460883812 4.9746281676660100 0.0000000000000000 12.0000000000000000 74
6.9036845923527252  -2.2275279589331727 4.9827502161265329 0.0000000000000000 12.0000000000000000 75
6.9951197007178862  -2.2294351638329699 4.9906606619307468 0.0000000000000000 12.0000000000000000 76
7.0865562762020478  -2.2312886538642438 4.9983705327246328 0.0000000000000000 12.0000000000000000 77
7.1779940386933188  -2.2330913287298064 5.0058902138500390 0.0000000000000000 12.0000000000000000 78
7.2694327192778285  -2.2348459090899011 5.0132294924425800 0.0000000000000000 12.0000000000000000 79
7.3608720595520660  -2.2365549496776000 5.0203975980620656 0.0000000000000000 12.0000000000000000 80
7.4523118109840043  -2.2382208513104991 5.0274032401483826 0.0000000000000000 12.0000000000000000 81
7.5437517343202698  -2.2398458718998677 5.0342546425705894 0.0000000000000000 12.0000000000000000 82
7.6351915990365580  -2.2414321365486902 5.0409595755138934 0.0000000000000000 12.0000000000000000 83
7.7266311828286485  -2.2429816468212413 5.0475253849279884 0.0000000000000000 12.0000000000000000 84
7.8180702711414112  -2.2444962892589326 5.0539590197408373 0.0000000000000000 12.0000000000000000 85
7.9095086567332933  -2.2459778432100164 5.0602670570242045 0.0000000000000000 12.0000000000000000 86
8.0009461392738892  -2.2474279880343064 5.0664557252810516 0.0000000000000000 12.0000000000000000 87
8.0923825249723293  -2.2488483097382765 5.0725309260100158 0.0000000000000000 12.0000000000000000 88
8.1838176262342905  -2.2502403070906540 5.0784982536887604 0.0000000000000000 12.0000000000000000 89
8.2752512613456002  -2.2516053972639192 5.0843630143055361 0.0000000000000000 12.0000000000000000 90
8.3666832541804990  -2.2529449210428574 5.0901302425571169 0.0000000000000000 12.0000000000000000 91
8.4581134339327306  -2.2542601476374799 5.0958047178209824 0.0000000000000000 12.0000000000000000 92
8.5495416348677793  -2.2555522791341476 5.1013909790002785 0.0000000000000000 12.0000000000000000 93
8.6409676960946360  -2.2568224546156226 5.1068933383315649 0.0000000000000000 12.0000000000000000 94
8.7323914613556290  -2.2580717539779336 5.1123158942376206 0.0000000000000000 12.0000000000000000 95
8.8238127788329095  -2.2593012014694001 5.1176625433005087 0.0000000000000000 12.0000000000000000 96
8.9152315009703269  -2.2605117689748386 5.1229369914236731 0.0000000000000000 12.0000000000000000 97
9.0066474843094504  -2.2617043790659164 5.1281427642459469 0.0000000000000000 12.0000000000000000 98
9.0980605893386901  -2.2628799078367088 5.1332832168651059 0.0000000000000000 12.0000000000000000 99
9.1894706803544146  -2.2640391875418118 5.1383615429236267 0.0000000000000000 12.0000000000000000 100
9.2808776253331526  -2.2651830090528580 5.1433807831049805 0.0000000000000000 12.0000000000000000 101
9.3722812958139912  -2.2663121241478272 5.1483438330847129 0.0000000000000000 12.0000000000000000 102
9.4636815667903278  -2.2674272476463204 5.1532534509768828 0.0000000000000000 12.0000000000000000 103
9.5550783166102509  -2.2685290594028160 5.1581122643131145 0.0000000000000000 12.0000000000000000 104
9.6464714268848386  -2.2696182061688708 5.1629227765884362 0.0000000000000000 12.0000000000000000 105
9.7378607824037271  -2.2706953033342900 5.1676873734052950 0.0000000000000000 12.0000000000000000 106
9.8292462710573645  -2.2717609365564604 5.1724083282446225 0.0000000000000000 12.0000000000000000 107
9.9206277837654095  -2.2728156632862220 5.1770878078904747 0.0000000000000000 12.0000000000000000 108
10.0120052144107543  -2.2738600141979806 5.1817278775326621 0.0000000000000000 12.0000000000000000 109
10.1033784597787211  -2.2748944945311189 5.1863305055698898 0.0000000000000000 12.0000000000000000 110
10.1947474195010148  -2.2759195853491625 5.1908975681340728 0.0000000000000000 12.0000000000000000 111
10.2861119960040082  -2.2769357447226390 5.1954308533549813 0.0000000000000000 12.0000000000000000 112
10.3774720944610266  -2.2779434088411019 5.1999320653828303 0.0000000000000000 12.0000000000000000 113
10.4688276227483090  -2.2789429930593070 5.2044028281850672 0.0000000000000000 12.0000000000000000 114
10.5601784914042796  -2.2799348928821841 5.2088446891324454 0.0000000000000000 12.0000000000000000 115
10.6515246135919277  -2.2809194848928289 5.2132591223882265 0.0000000000000000 12.0000000000000000 116
10.7428659050639830  -2.2818971276274453 5.2176475321134506 0.0000000000000000 12.0000000000000000 117
10.8342022841306509  -2.2828681624008400 5.2220112555001315 0.0000000000000000 12.0000000000000000 118
10.9255336716297098  -2.2838329140858038 5.2263515656434540 0.0000000000000000 12.0000000000000000 119
11.0168599908987606  -2.2847916918494593 5.2306696742632059 0.0000000000000000 12.0000000000000000 120
11.1081811677494091  -2.2857447898494092 5.2349667342839243 0.0000000000000000 12.0000000000000000 121
11.1994971304432624  -2.2866924878923340 5.2392438422826402 0.0000000000000000 12.0000000000000000 122
11.2908078096695341  -2.2876350520574551 5.2435020408123574 0.0000000000000000 12.0000000000000000 123
11.3821131385241170  -2.2885727352871306 5.2477423206089293 0.0000000000000000 12.0000000000000000 124
11.4734130524900113  -2.2895057779466810 5.2519656226884610 0.0000000000000000 12.0000000000000000 125
11.5647074894189625  -2.2904344083553698 5.2561728403417813 0.0000000000000000 12.0000000000000000 126
11.6559963895141667  -2.2913588432903573 5.2603648210322280 0.0000000000000000 12.0000000000000000 127
11.7472796953139937  -2.2922792884652914 5.2645423682024344 0.0000000000000000 12.0000000000000000 128
11.8385573516765632  -2.2931959389851109 5.2687062429955400 0.0000000000000000 12.0000000000000000 129
11.9298293057651179  -2.2941089797784797 5.2728571658957879 0.0000000000000000 12.0000000000000000 130
12.0210955070340813  -2.2950185860092414 5.2769958182932424 0.0000000000000000 12.0000000000000000 131
12.1123559072157487  -2.2959249234681156 5.2811228439769646 0.0000000000000000 12.0000000000000000 132
12.2036104603074786  -2.2968281489458451 5.2852388505608090 0.0000000000000000 12.0000000000000000 133
12.2948591225593731  -2.2977284105888529 5.2893444108456098 0.0000000000000000 12.0000000000000000 134
12.3861018524623443  -2.2986258482384661 5.2934400641214188 0.0000000000000000 12.0000000000000000 135
12.4773386107364903  -2.2995205937546386 5.2975263174131459 0.0000000000000000 12.0000000000000000 136
12.5685693603197617  -2.3004127713250773 5.3016036466727563 0.0000000000000000 12.0000000000000000 137
12.6597940663568220  -2.3013024977606138 5.3056724979210284 0.0000000000000000 12.0000000000000000 138
12.7510126961880701  -2.3021898827775824 5.3097332883416284 0.0000000000000000 12.0000000000000000 139
12.8422252193387454  -2.3030750292679709 5.3137864073301557 0.0000000000000000 12.0000000000000000 140
12.9334316075081350  -2.3039580335580041 5.3178322175006105 0.0000000000000000 12.0000000000000000 141
13.0246318345587309  -2.3048389856558158 5.3218710556515827 0.0000000000000000 12.0000000000000000 142
13.1158258765053866  -2.3057179694888221 5.3259032336943974 0.0000000000000000 12.0000000000000000 143
13.2070137115044108  -2.3065950631313408 5.3299290395451884 0.0000000000000000 12.0000000000000000 144
13.2981953198424971  -2.3074703390230233 5.3339487379829302 0.0000000000000000 12.0000000000000000 145
13.3893706839255398  -2.3083438641785703 5.3379625714751517 0.0000000000000000 12.0000000000000000 146
13.4805397882672686  -2.3092157003892151 5.3419707609731173 0.0000000000000000 12.0000000000000000 147
13.5717026194776071  -2.3100859044164239 5.3459735066780496 0.0000000000000000 12.0000000000000000 148
13.6628591662508416  -2.3109545281782120 5.3499709887799387 0.0000000000000000 12.0000000000000000 149
13.7540094193534710  -2.3118216189284828 5.3539633681703576 0.0000000000000000 12.0000000000000000 150
13.8451533716117297  -2.3126872194297574 5.3579507871306475 0.0000000000000000 12.0000000000000000 151
13.9362910178988155  -2.3135513681196263 5.3619333699967280 0.0000000000000000 12.0000000000000000 152
14.0274223551217077  -2.3144140992712718 5.3659112238017670 0.0000000000000000 12.0000000000000000 153
14.1185473822076055  -2.3152754431483498 5.3698844388978104 0.0000000000000000 12.0000000000000000 154
14.2096661000899740  -2.3161354261545313 5.3738530895574659 0.0000000000000000 12.0000000000000000 155
14.3007785116941264  -2.3169940709779770 5.3778172345566198 0.0000000000000000 12.0000000000000000 156
14.3918846219223617  -2.3178513967309868 5.3817769177391597 0.0000000000000000 12.0000000000000000 157
14.4829844376386347  -2.3187074190850891 5.3857321685645907 0.0000000000000000 12.0000000000000000 158
14.5740779676527286  -2.3195621504017812 5.3896830026393916 0.0000000000000000 12.0000000000000000 159
14.6651652227039087  -2.3204155998591327 5.3936294222328831 0.0000000000000000 12.0000000000000000 160
14.7562462154440723  -2.3212677735744691 5.3975714167783799 0.0000000000000000 12.0000000000000000 161
14.8473209604203582  -2.3221186747233138 5.4015089633603317 0.0000000000000000 12.0000000000000000 162
14.9383894740571854  -2.3229683036547693 5.4054420271880863 0.0000000000000000 12.0000000000000000 163
15.0294517746377654  -2.3238166580035027 5.4093705620569299 0.0000000000000000 12.0000000000000000 164
15.1205078822850272  -2.3246637327985074 5.4132945107969705 0.0000000000000000 12.0000000000000000 165
15.2115578189419587  -2.3255095205687688 5.4172138057104204 0.0000000000000000 12.0000000000000000 166
15.3026016083513774  -2.3263540114459929 5.4211283689977936 0.0000000000000000 12.0000000000000000 167
15.3936392760351115  -2.3271971932645150 5.4250381131734962 0.0000000000000000 12.0000000000000000 168
15.4846708492725718  -2.3280390516585219 5.4289429414712789 0.0000000000000000 12.0000000000000000 169
15.5756963570787281  -2.3288795701566993 5.4328427482399579 0.0000000000000000 12.0000000000000000 170
15.6667158301815146  -2.3297187302744087 5.4367374193298144 0.0000000000000000 12.0000000000000000 171
15.7577293009985855  -2.3305565116035050 5.4406268324700422 0.0000000000000000 12.0000000000000000 172
15.8487368036135088  -2.3313928918998821 5.4445108576375985 0.0000000000000000 12.0000000000000000 173
15.9397383737513501  -2.3322278471688396 5.4483893574177511 0.0000000000000000 12.0000000000000000 174
16.0307340487536649  -2.3330613517483552 5.4522621873566788 0.0000000000000000 12.0000000000000000 175
16.1217238675528698  -2.3338933783903348 5.4561291963063496 0.0000000000000000 12.0000000000000000 176
16.2127078706460921  -2.3347238983399237 5.4599902267619829 0.0000000000000000 12.0000000000000000 177
16.3036861000683757  -2.3355528814129340 5.4638451151923020 0.0000000000000000 12.0000000000000000 178
16.3946585993653429  -2.3363802960714675 5.4676936923628441 0.0000000000000000 12.0000000000000000 179
16.4856254135653053  -2.3372061094977736 5.4715357836524863 0.0000000000000000 12.0000000000000000 180
16.5765865891507929  -2.3380302876664212 5.4753712093634279 0.0000000000000000 12.0000000000000000 181
16.6675421740295704  -2.3388527954148106 5.4791997850247771 0.0000000000000000 12.0000000000000000 182
16.7584922175051183  -2.3396735965120961 5.4830213216899146 0.0000000000000000 12.0000000000000000 183
16.8494367702465659  -2.3404926537265416 5.4868356262277835 0.0000000000000000 12.0000000000000000 184
16.9403758842581702  -2.3413099288913748 5.4906425016082512 0.0000000000000000 12.0000000000000000 185
17.0313096128482862  -2.3421253829691473 5.4944417471816518 0.0000000000000000 12.0000000000000000 186
17.1222380105978544  -2.3429389761146728 5.4982331589526519 0.0000000000000000 12.0000000000000000 187
17.2131611333284553  -2.3437506677365363 5.5020165298485102 0.0000000000000000 12.0000000000000000 188
17.3040790380699185  -2.3445604165572385 5.5057916499818598 0.0000000000000000 12.0000000000000000 189
17.3949917830275247  -2.3453681806719793 5.5095583069080849 0.0000000000000000 12.0000000000000000 190
17.4858994275487838  -2.3461739176061172 5.5133162858773535 0.0000000000000000 12.0000000000000000 191
17.5768020320898799  -2.3469775843713245 5.5170653700814114 0.0000000000000000 12.0000000000000000 192
17.6676996581817178  -2.3477791375204644 5.5208053408951825 0.0000000000000000 12.0000000000000000 193
17.7585923683956608  -2.3485785332011995 5.5245359781132191 0.0000000000000000 12.0000000000000000 194
17.8494802263089340  -2.3493757272083600 5.5282570601810850 0.0000000000000000 12.0000000000000000 195
