 # inv_tmp, energy, phys_var, phys_doublon, phys_num, step_i
0.005542  39.109036 1689.097582 3.940646 16.000000 1
0.011057  38.225953 1620.228302 3.881773 16.000000 2
0.016545  37.348400 1553.190377 3.823254 16.000000 3
0.022007  36.477110 1488.013420 3.765127 16.000000 4
0.027443  35.612776 1424.720003 3.707429 16.000000 5
0.032855  34.756055 1363.325859 3.650196 16.000000 6
0.038242  33.907563 1303.840151 3.593461 16.000000 7
0.043605  33.067874 1246.265769 3.537254 16.000000 8
0.048945  32.237521 1190.599671 3.481603 16.000000 9
0.054262  31.416994 1136.833246 3.426536 16.000000 10
0.059557  30.606741 1084.952704 3.372075 16.000000 11
0.064831  29.807170 1034.939471 3.318243 16.000000 12
0.070084  29.018646 986.770606 3.265060 16.000000 13
0.075318  28.241494 940.419206 3.212544 16.000000 14
0.080532  27.476001 895.854819 3.160709 16.000000 15
0.085727  26.722414 853.043850 3.109571 16.000000 16
0.090904  25.980947 811.949947 3.059141 16.000000 17
0.096064  25.251777 772.534387 3.009429 16.000000 18
0.101208  24.535048 734.756432 2.960444 16.000000 19
0.106335  23.830874 698.573679 2.912193 16.000000 20
0.111447  23.139337 663.942378 2.864680 16.000000 21
0.116544  22.460495 630.817738 2.817911 16.000000 22
0.121627  21.794376 599.154205 2.771888 16.000000 23
0.126696  21.140986 568.905724 2.726612 16.000000 24
0.131752  20.500309 540.025971 2.682083 16.000000 25
0.136796  19.872308 512.468570 2.638301 16.000000 26
0.141828  19.256926 486.187286 2.595264 16.000000 27
0.146848  18.654088 461.136194 2.552969 16.000000 28
0.151858  18.063707 437.269840 2.511412 16.000000 29
0.156857  17.485677 414.543369 2.470589 16.000000 30
0.161846  16.919881 392.912643 2.430496 16.000000 31
0.166826  16.366191 372.334345 2.391126 16.000000 32
0.171796  15.824467 352.766062 2.352472 16.000000 33
0.176759  15.294561 334.166359 2.314529 16.000000 34
0.181713  14.776316 316.494836 2.277289 16.000000 35
0.186659  14.269567 299.712176 2.240743 16.000000 36
0.191598  13.774145 283.780183 2.204884 16.000000 37
0.196530  13.289873 268.661805 2.169703 16.000000 38
0.201455  12.816572 254.321159 2.135192 16.000000 39
0.206374  12.354057 240.723535 2.101341 16.000000 40
0.211287  11.902140 227.835405 2.068140 16.000000 41
0.216194  11.460632 215.624419 2.035581 16.000000 42
0.221096  11.029341 204.059398 2.003653 16.000000 43
0.225993  10.608073 193.110322 1.972347 16.000000 44
0.230886  10.196634 182.748314 1.941652 16.000000 45
0.235773  9.794830 172.945622 1.911559 16.000000 46
0.240657  9.402466 163.675596 1.882057 16.000000 47
0.245536  9.019348 154.912665 1.853135 16.000000 48
0.250412  8.645282 146.632311 1.824784 16.000000 49
0.255284  8.280075 138.811039 1.796993 16.000000 50
0.260153  7.923536 131.426350 1.769753 16.000000 51
0.265019  7.575477 124.456712 1.743051 16.000000 52
0.269882  7.235708 117.881526 1.716879 16.000000 53
0.274742  6.904046 111.681102 1.691226 16.000000 54
0.279600  6.580306 105.836620 1.666082 16.000000 55
0.284455  6.264308 100.330106 1.641438 16.000000 56
0.289308  5.955875 95.144397 1.617282 16.000000 57
0.294159  5.654832 90.263113 1.593606 16.000000 58
0.299007  5.361006 85.670624 1.570399 16.000000 59
0.303855  5.074229 81.352025 1.547653 16.000000 60
0.308700  4.794337 77.293104 1.525357 16.000000 61
0.313544  4.521166 73.480316 1.503504 16.000000 62
0.318386  4.254558 69.900751 1.482083 16.000000 63
0.323228  3.994360 66.542114 1.461086 16.000000 64
0.328068  3.740418 63.392694 1.440505 16.000000 65
0.332907  3.492586 60.441341 1.420331 16.000000 66
0.337745  3.250719 57.677441 1.400557 16.000000 67
0.342582  3.014676 55.090895 1.381173 16.000000 68
0.347418  2.784321 52.672092 1.362173 16.000000 69
0.352254  2.559521 50.411892 1.343548 16.000000 70
0.357089  2.340145 48.301599 1.325293 16.000000 71
0.361924  2.126068 46.332950 1.307399 16.000000 72
0.366758  1.917165 44.498087 1.289860 16.000000 73
0.371592  1.713319 42.789542 1.272669 16.000000 74
0.376425  1.514412 41.200221 1.255820 16.000000 75
0.381258  1.320331 39.723385 1.239306 16.000000 76
0.386092  1.130967 38.352631 1.223122 16.000000 77
0.390925  0.946213 37.081884 1.207262 16.000000 78
0.395758  0.765965 35.905373 1.191720 16.000000 79
0.400591  0.590122 34.817624 1.176491 16.000000 80
0.405424  0.418585 33.813442 1.161570 16.000000 81
0.410258  0.251258 32.887899 1.146951 16.000000 82
0.415091  0.088049 32.036325 1.132629 16.000000 83
0.419925  -0.071133 31.254289 1.118600 16.000000 84
0.424760  -0.226378 30.537593 1.104859 16.000000 85
0.429594  -0.377771 29.882260 1.091402 16.000000 86
0.434429  -0.525397 29.284524 1.078223 16.000000 87
0.439265  -0.669339 28.740817 1.065320 16.000000 88
0.444101  -0.809675 28.247763 1.052687 16.000000 89
0.448938  -0.946485 27.802168 1.040320 16.000000 90
0.453775  -1.079847 27.401010 1.028215 16.000000 91
0.458613  -1.209834 27.041432 1.016369 16.000000 92
0.463451  -1.336521 26.720732 1.004777 16.000000 93
0.468291  -1.459980 26.436361 0.993436 16.000000 94
0.473131  -1.580282 26.185906 0.982342 16.000000 95
0.477972  -1.697495 25.967094 0.971491 16.000000 96
0.482813  -1.811689 25.777778 0.960880 16.000000 97
0.487656  -1.922929 25.615931 0.950504 16.000000 98
0.492499  -2.031283 25.479646 0.940361 16.000000 99
0.497343  -2.136813 25.367121 0.930446 16.000000 100
0.502188  -2.239584 25.276661 0.920756 16.000000 101
0.507034  -2.339658 25.206671 0.911287 16.000000 102
0.511881  -2.437097 25.155649 0.902037 16.000000 103
0.516729  -2.531959 25.122180 0.893001 16.000000 104
0.521578  -2.624306 25.104937 0.884176 16.000000 105
0.526428  -2.714195 25.102672 0.875558 16.000000 106
0.531279  -2.801683 25.114212 0.867144 16.000000 107
0.536131  -2.886828 25.138457 0.858932 16.000000 108
0.540984  -2.969684 25.174374 0.850916 16.000000 109
0.545838  -3.050306 25.220996 0.843094 16.000000 110
0.550693  -3.128749 25.277416 0.835462 16.000000 111
0.555549  -3.205064 25.342785 0.828017 16.000000 112
0.560406  -3.279305 25.416308 0.820756 16.000000 113
0.565264  -3.351521 25.497243 0.813675 16.000000 114
0.570123  -3.421764 25.584894 0.806771 16.000000 115
0.574983  -3.490083 25.678613 0.800040 16.000000 116
0.579844  -3.556526 25.777795 0.793480 16.000000 117
0.584707  -3.621141 25.881875 0.787086 16.000000 118
0.589570  -3.683975 25.990327 0.780856 16.000000 119
0.594434  -3.745073 26.102662 0.774786 16.000000 120
0.599300  -3.804481 26.218424 0.768873 16.000000 121
0.604166  -3.862244 26.337190 0.763114 16.000000 122
0.609034  -3.918404 26.458567 0.757506 16.000000 123
0.613902  -3.973004 26.582188 0.752045 16.000000 124
0.618772  -4.026086 26.707718 0.746729 16.000000 125
0.623642  -4.077690 26.834842 0.741553 16.000000 126
0.628514  -4.127857 26.963271 0.736516 16.000000 127
0.633386  -4.176626 27.092738 0.731614 16.000000 128
0.638260  -4.224035 27.222996 0.726845 16.000000 129
0.643134  -4.270121 27.353818 0.722204 16.000000 130
0.648010  -4.314922 27.484995 0.717689 16.000000 131
0.652886  -4.358473 27.616334 0.713298 16.000000 132
0.657763  -4.400809 27.747661 0.709028 16.000000 133
0.662641  -4.441965 27.878813 0.704875 16.000000 134
0.667520  -4.481974 28.009644 0.700837 16.000000 135
0.672400  -4.520868 28.140018 0.696911 16.000000 136
0.677281  -4.558680 28.269815 0.693094 16.000000 137
0.682163  -4.595440 28.398923 0.689385 16.000000 138
0.687045  -4.631180 28.527242 0.685779 16.000000 139
0.691929  -4.665927 28.654681 0.682275 16.000000 140
0.696813  -4.699712 28.781159 0.678871 16.000000 141
0.701698  -4.732563 28.906604 0.675563 16.000000 142
0.706584  -4.764506 29.030950 0.672349 16.000000 143
0.711470  -4.795569 29.154139 0.669227 16.000000 144
0.716358  -4.825777 29.276122 0.666195 16.000000 145
0.721246  -4.855156 29.396854 0.663250 16.000000 146
0.726134  -4.883730 29.516296 0.660390 16.000000 147
0.731024  -4.911523 29.634415 0.657612 16.000000 148
0.735914  -4.938559 29.751182 0.654916 16.000000 149
0.740805  -4.964861 29.866575 0.652298 16.000000 150
0.745697  -4.990449 29.980573 0.649756 16.000000 151
0.750589  -5.015346 30.093162 0.647289 16.000000 152
0.755482  -5.039572 30.204329 0.644895 16.000000 153
0.760375  -5.063148 30.314067 0.642571 16.000000 154
0.765269  -5.086094 30.422370 0.640316 16.000000 155
0.770164  -5.108427 30.529235 0.638128 16.000000 156
0.775060  -5.130168 30.634662 0.636004 16.000000 157
0.779955  -5.151333 30.738653 0.633945 16.000000 158
0.784852  -5.171941 30.841214 0.631946 16.000000 159
0.789749  -5.192008 30.942349 0.630008 16.000000 160
0.794647  -5.211550 31.042068 0.628128 16.000000 161
0.799545  -5.230585 31.140379 0.626304 16.000000 162
0.804443  -5.249126 31.237294 0.624536 16.000000 163
0.809343  -5.267190 31.332826 0.622822 16.000000 164
0.814242  -5.284790 31.426987 0.621159 16.000000 165
0.819142  -5.301942 31.519793 0.619548 16.000000 166
0.824043  -5.318657 31.611258 0.617985 16.000000 167
0.828944  -5.334951 31.701399 0.616471 16.000000 168
0.833846  -5.350836 31.790234 0.615003 16.000000 169
0.838748  -5.366324 31.877778 0.613581 16.000000 170
0.843650  -5.381427 31.964052 0.612203 16.000000 171
0.848553  -5.396157 32.049072 0.610867 16.000000 172
0.853456  -5.410526 32.132859 0.609573 16.000000 173
0.858359  -5.424544 32.215431 0.608320 16.000000 174
0.863263  -5.438223 32.296807 0.607106 16.000000 175
0.868168  -5.451572 32.377008 0.605930 16.000000 176
0.873073  -5.464601 32.456054 0.604791 16.000000 177
0.877978  -5.477321 32.533963 0.603689 16.000000 178
0.882883  -5.489741 32.610757 0.602621 16.000000 179
0.887789  -5.501869 32.686455 0.601588 16.000000 180
0.892695  -5.513715 32.761078 0.600588 16.000000 181
0.897601  -5.525287 32.834644 0.599620 16.000000 182
0.902508  -5.536594 32.907175 0.598684 16.000000 183
0.907415  -5.547643 32.978689 0.597777 16.000000 184
0.912322  -5.558443 33.049207 0.596901 16.000000 185
0.917230  -5.569001 33.118747 0.596053 16.000000 186
0.922138  -5.579323 33.187330 0.595233 16.000000 187
0.927046  -5.589418 33.254974 0.594440 16.000000 188
0.931954  -5.599292 33.321698 0.593674 16.000000 189
0.936863  -5.608951 33.387521 0.592933 16.000000 190
0.941772  -5.618403 33.452461 0.592217 16.000000 191
0.946681  -5.627652 33.516536 0.591525 16.000000 192
0.951590  -5.636706 33.579765 0.590857 16.000000 193
0.956500  -5.645571 33.642165 0.590211 16.000000 194
0.961410  -5.654251 33.703753 0.589588 16.000000 195
0.966320  -5.662752 33.764547 0.588986 16.000000 196
0.971230  -5.671079 33.824563 0.588405 16.000000 197
0.976141  -5.679239 33.883818 0.587845 16.000000 198
0.981051  -5.687235 33.942328 0.587304 16.000000 199
0.985962  -5.695072 34.000110 0.586782 16.000000 200
0.990873  -5.702756 34.057178 0.586280 16.000000 201
0.995784  -5.710290 34.113548 0.585795 16.000000 202
1.000696  -5.717679 34.169237 0.585328 16.000000 203
1.005607  -5.724927 34.224257 0.584878 16.000000 204
1.010519  -5.732038 34.278624 0.584445 16.000000 205
1.015431  -5.739017 34.332352 0.584027 16.000000 206
1.020343  -5.745867 34.385455 0.583626 16.000000 207
1.025255  -5.752591 34.437947 0.583240 16.000000 208
1.030168  -5.759194 34.489841 0.582869 16.000000 209
1.035080  -5.765679 34.541150 0.582512 16.000000 210
1.039993  -5.772049 34.591887 0.582169 16.000000 211
1.044906  -5.778307 34.642064 0.581839 16.000000 212
1.049818  -5.784457 34.691695 0.581523 16.000000 213
1.054731  -5.790502 34.740790 0.581220 16.000000 214
1.059645  -5.796445 34.789362 0.580929 16.000000 215
1.064558  -5.802289 34.837421 0.580651 16.000000 216
1.069471  -5.808035 34.884980 0.580384 16.000000 217
1.074385  -5.813688 34.932050 0.580129 16.000000 218
1.079298  -5.819250 34.978640 0.579884 16.000000 219
1.084212  -5.824723 35.024762 0.579651 16.000000 220
1.089126  -5.830110 35.070425 0.579428 16.000000 221
1.094040  -5.835413 35.115640 0.579215 16.000000 222
1.098954  -5.840634 35.160417 0.579013 16.000000 223
1.103868  -5.845776 35.204764 0.578820 16.000000 224
1.108782  -5.850841 35.248692 0.578636 16.000000 225
1.113696  -5.855831 35.292210 0.578461 16.000000 226
1.118610  -5.860748 35.335325 0.578296 16.000000 227
1.123525  -5.865594 35.378048 0.578139 16.000000 228
1.128439  -5.870371 35.420386 0.577990 16.000000 229
1.133354  -5.875081 35.462348 0.577849 16.000000 230
1.138268  -5.879725 35.503942 0.577717 16.000000 231
1.143183  -5.884306 35.545175 0.577592 16.000000 232
1.148098  -5.888825 35.586056 0.577474 16.000000 233
1.153012  -5.893283 35.626591 0.577364 16.000000 234
1.157927  -5.897682 35.666789 0.577261 16.000000 235
1.162842  -5.902025 35.706656 0.577164 16.000000 236
1.167757  -5.906311 35.746199 0.577075 16.000000 237
1.172672  -5.910544 35.785425 0.576991 16.000000 238
1.177587  -5.914723 35.824341 0.576915 16.000000 239
1.182502  -5.918851 35.862953 0.576844 16.000000 240
1.187418  -5.922929 35.901268 0.576779 16.000000 241
1.192333  -5.926958 35.939291 0.576720 16.000000 242
1.197248  -5.930939 35.977028 0.576666 16.000000 243
1.202163  -5.934874 36.014487 0.576618 16.000000 244
1.207079  -5.938764 36.051671 0.576576 16.000000 245
1.211994  -5.942610 36.088587 0.576538 16.000000 246
1.216909  -5.946412 36.125240 0.576506 16.000000 247
1.221825  -5.950173 36.161636 0.576478 16.000000 248
1.226740  -5.953893 36.197779 0.576455 16.000000 249
1.231656  -5.957573 36.233675 0.576437 16.000000 250
1.236571  -5.961214 36.269328 0.576423 16.000000 251
1.241487  -5.964817 36.304744 0.576413 16.000000 252
1.246402  -5.968383 36.339927 0.576408 16.000000 253
1.251318  -5.971913 36.374881 0.576407 16.000000 254
1.256234  -5.975408 36.409612 0.576410 16.000000 255
1.261149  -5.978868 36.444123 0.576417 16.000000 256
1.266065  -5.982294 36.478418 0.576427 16.000000 257
1.270981  -5.985688 36.512503 0.576441 16.000000 258
1.275896  -5.989050 36.546380 0.576459 16.000000 259
1.280812  -5.992381 36.580054 0.576480 16.000000 260
1.285728  -5.995681 36.613528 0.576504 16.000000 261
1.290644  -5.998951 36.646806 0.576532 16.000000 262
1.295560  -6.002192 36.679893 0.576563 16.000000 263
1.300475  -6.005405 36.712790 0.576597 16.000000 264
1.305391  -6.008589 36.745503 0.576634 16.000000 265
1.310307  -6.011747 36.778034 0.576674 16.000000 266
1.315223  -6.014878 36.810387 0.576717 16.000000 267
1.320139  -6.017983 36.842564 0.576762 16.000000 268
1.325054  -6.021062 36.874569 0.576811 16.000000 269
1.329970  -6.024117 36.906405 0.576861 16.000000 270
1.334886  -6.027147 36.938075 0.576915 16.000000 271
1.339802  -6.030154 36.969582 0.576970 16.000000 272
1.344718  -6.033137 37.000929 0.577028 16.000000 273
1.349634  -6.036098 37.032118 0.577089 16.000000 274
1.354550  -6.039036 37.063152 0.577151 16.000000 275
1.359465  -6.041953 37.094034 0.577216 16.000000 276
1.364381  -6.044848 37.124767 0.577283 16.000000 277
1.369297  -6.047722 37.155352 0.577352 16.000000 278
1.374213  -6.050576 37.185792 0.577423 16.000000 279
1.379129  -6.053409 37.216091 0.577496 16.000000 280
1.384045  -6.056224 37.246249 0.577571 16.000000 281
1.388961  -6.059018 37.276269 0.577647 16.000000 282
1.393877  -6.061794 37.306155 0.577726 16.000000 283
1.398792  -6.064552 37.335906 0.577806 16.000000 284
1.403708  -6.067292 37.365527 0.577888 16.000000 285
1.408624  -6.070013 37.395018 0.577971 16.000000 286
1.413540  -6.072718 37.424382 0.578056 16.000000 287
1.418456  -6.075405 37.453621 0.578142 16.000000 288
1.423372  -6.078076 37.482737 0.578230 16.000000 289
1.428287  -6.080730 37.511731 0.578320 16.000000 290
1.433203  -6.083368 37.540606 0.578410 16.000000 291
1.438119  -6.085990 37.569363 0.578503 16.000000 292
1.443035  -6.088597 37.598004 0.578596 16.000000 293
1.447951  -6.091189 37.626530 0.578691 16.000000 294
1.452866  -6.093766 37.654944 0.578787 16.000000 295
1.457782  -6.096328 37.683246 0.578884 16.000000 296
1.462698  -6.098875 37.711439 0.578982 16.000000 297
1.467614  -6.101409 37.739525 0.579081 16.000000 298
1.472529  -6.103929 37.767503 0.579182 16.000000 299
1.477445  -6.106435 37.795377 0.579283 16.000000 300
1.482361  -6.108928 37.823147 0.579386 16.000000 301
1.487277  -6.111407 37.850815 0.579489 16.000000 302
1.492192  -6.113874 37.878382 0.579594 16.000000 303
1.497108  -6.116328 37.905849 0.579699 16.000000 304
1.502024  -6.118769 37.933218 0.579805 16.000000 305
1.506939  -6.121198 37.960491 0.579913 16.000000 306
1.511855  -6.123615 37.987668 0.580021 16.000000 307
1.516771  -6.126021 38.014750 0.580129 16.000000 308
1.521686  -6.128414 38.041739 0.580239 16.000000 309
1.526602  -6.130796 38.068636 0.580349 16.000000 310
1.531517  -6.133167 38.095442 0.580460 16.000000 311
1.536433  -6.135526 38.122158 0.580572 16.000000 312
1.541348  -6.137875 38.148785 0.580685 16.000000 313
1.546264  -6.140213 38.175325 0.580798 16.000000 314
1.551180  -6.142540 38.201778 0.580912 16.000000 315
1.556095  -6.144857 38.228145 0.581026 16.000000 316
1.561011  -6.147163 38.254428 0.581141 16.000000 317
1.565926  -6.149459 38.280626 0.581256 16.000000 318
1.570841  -6.151745 38.306742 0.581373 16.000000 319
1.575757  -6.154022 38.332777 0.581489 16.000000 320
1.580672  -6.156288 38.358730 0.581606 16.000000 321
1.585588  -6.158545 38.384603 0.581724 16.000000 322
1.590503  -6.160793 38.410397 0.581842 16.000000 323
1.595418  -6.163031 38.436112 0.581961 16.000000 324
1.600334  -6.165261 38.461750 0.582080 16.000000 325
1.605249  -6.167481 38.487311 0.582199 16.000000 326
1.610164  -6.169692 38.512796 0.582319 16.000000 327
1.615080  -6.171894 38.538206 0.582439 16.000000 328
1.619995  -6.174088 38.563542 0.582560 16.000000 329
1.624910  -6.176273 38.588804 0.582681 16.000000 330
1.629826  -6.178449 38.613992 0.582802 16.000000 331
1.634741  -6.180617 38.639109 0.582924 16.000000 332
1.639656  -6.182777 38.664154 0.583046 16.000000 333
1.644571  -6.184929 38.689128 0.583168 16.000000 334
1.649486  -6.187073 38.714031 0.583290 16.000000 335
1.654401  -6.189209 38.738865 0.583413 16.000000 336
1.659317  -6.191337 38.763630 0.583536 16.000000 337
1.664232  -6.193457 38.788327 0.583660 16.000000 338
1.669147  -6.195569 38.812956 0.583783 16.000000 339
1.674062  -6.197674 38.837518 0.583907 16.000000 340
1.678977  -6.199771 38.862013 0.584031 16.000000 341
1.683892  -6.201861 38.886442 0.584155 16.000000 342
1.688807  -6.203944 38.910805 0.584280 16.000000 343
1.693722  -6.206019 38.935104 0.584404 16.000000 344
1.698637  -6.208088 38.959338 0.584529 16.000000 345
1.703552  -6.210149 38.983508 0.584654 16.000000 346
1.708467  -6.212203 39.007615 0.584779 16.000000 347
1.713382  -6.214250 39.031660 0.584904 16.000000 348
1.718296  -6.216290 39.055641 0.585030 16.000000 349
1.723211  -6.218324 39.079561 0.585155 16.000000 350
1.728126  -6.220351 39.103419 0.585281 16.000000 351
1.733041  -6.222371 39.127217 0.585406 16.000000 352
1.737956  -6.224385 39.150954 0.585532 16.000000 353
1.742871  -6.226392 39.174630 0.585658 16.000000 354
1.747785  -6.228392 39.198247 0.585784 16.000000 355
1.752700  -6.230387 39.221805 0.585910 16.000000 356
1.757615  -6.232374 39.245305 0.586036 16.000000 357
1.762529  -6.234356 39.268745 0.586162 16.000000 358
1.767444  -6.236331 39.292128 0.586288 16.000000 359
1.772359  -6.238301 39.315453 0.586415 16.000000 360
1.777273  -6.240264 39.338721 0.586541 16.000000 361
1.782188  -6.242221 39.361932 0.586667 16.000000 362
1.787103  -6.244172 39.385087 0.586794 16.000000 363
1.792017  -6.246117 39.408185 0.586920 16.000000 364
1.796932  -6.248056 39.431228 0.587046 16.000000 365
1.801846  -6.249990 39.454215 0.587173 16.000000 366
1.806761  -6.251917 39.477148 0.587299 16.000000 367
1.811675  -6.253839 39.500025 0.587426 16.000000 368
1.816590  -6.255755 39.522848 0.587552 16.000000 369
1.821504  -6.257666 39.545617 0.587678 16.000000 370
1.826419  -6.259571 39.568333 0.587805 16.000000 371
1.831333  -6.261470 39.590995 0.587931 16.000000 372
1.836247  -6.263364 39.613604 0.588057 16.000000 373
1.841162  -6.265253 39.636160 0.588184 16.000000 374
1.846076  -6.267136 39.658663 0.588310 16.000000 375
1.850990  -6.269013 39.681114 0.588436 16.000000 376
1.855905  -6.270885 39.703513 0.588562 16.000000 377
