 # inv_tmp, energy, phys_var, phys_doublon, phys_num, step_i
0.0206509481702690  7.1521466467391974 88.0170809482778793 1.9289693616466972 8.0000000000000036 1
0.0409814909589767  6.3949615692585482 77.2064440936761542 1.8805063054719890 8.0000000000000000 2
0.0610102426266309  5.6558574153087502 67.5681164465714659 1.8332714233731751 8.0000000000000018 3
0.0807574393147515  4.9379189349967030 59.0776344460025484 1.7875290429783046 8.0000000000000000 4
0.1002442309098393  4.2436358757233386 51.6916467443176089 1.7434941238786901 8.0000000000000000 5
0.1194920488280104  3.5749079733993652 45.3520384078948950 1.7013317276997100 7.9999999999999982 6
0.1385220703274516  2.9330727810704129 39.9900310578761946 1.6611588693412886 8.0000000000000000 7
0.1573547885732106  2.3189507921720125 35.5299988407159333 1.6230482022801365 7.9999999999999982 8
0.1760096884259078  1.7329023136292134 31.8928273684863655 1.5870329589040013 7.9999999999999991 9
0.1945050210563221  1.1748909545698845 28.9987230762402213 1.5531125968286592 8.0000000000000018 10
0.2128576659277930  0.6445492855164945 26.7694463578788948 1.5212586752294972 8.0000000000000000 11
0.2310830661753334  0.1412430723500522 25.1299905169999320 1.4914205825485249 8.0000000000000000 12
0.2491952225837761  -0.3358686030152440 24.0097604409173400 1.4635308420289901 8.0000000000000018 13
0.2672067318276279  -0.7877791419659408 23.3433223441639939 1.4375098216583935 7.9999999999999991 14
0.2851288559852815  -1.2155871643823211 23.0708021403939014 1.4132697617964687 7.9999999999999982 15
0.3029716122163126  -1.6204565368750043 23.1380082768294102 1.3907181025926594 7.9999999999999982 16
0.3207438735861436  -2.0035835442651502 23.4963481245356149 1.3697601431579494 8.0000000000000000 17
0.3384534741010026  -2.3661706993048552 24.1025976088985985 1.3503010966491851 8.0000000000000036 18
0.3561073129150220  -2.7094064677856053 24.9185734189243639 1.3322476226977380 8.0000000000000000 19
0.3737114542955348  -3.0344500823557596 25.9107470184170907 1.3155089243393454 8.0000000000000000 20
0.3912712212434057  -3.3424206015709998 27.0498304991301559 1.2999974941594776 8.0000000000000000 21
0.4087912816654971  -3.6343894144103057 28.3103564160739083 1.2856295867593888 8.0000000000000000 22
0.4262757267161823  -3.9113754713675215 29.6702672327884187 1.2723254842974692 8.0000000000000000 23
0.4437281414087393  -4.1743426225133025 31.1105248270191552 1.2600096105702163 7.9999999999999991 24
0.4611516678948341  -4.4241985467621090 32.6147465239704957 1.2486105380907602 7.9999999999999982 25
0.4785490619685877  -4.6617948556616717 34.1688711549131554 1.2380609226423747 8.0000000000000000 26
0.4959227434125359  -4.8879280438239912 35.7608564961156716 1.2282973912026705 8.0000000000000000 27
0.5132748408001719  -5.1033410340132130 37.3804079518298380 1.2192604020633282 8.0000000000000000 28
0.5306072313298393  -5.3087251273167748 39.0187373524480279 1.2108940903539660 7.9999999999999973 29
0.5479215762064511  -5.5047222184815476 40.6683501176310713 1.2031461078645254 8.0000000000000000 30
0.5652193520236590  -5.6919271748586535 42.3228586820709651 1.1959674628519048 8.0000000000000018 31
0.5825018785377107  -5.8708903062476283 43.9768199192293068 1.1893123632081859 8.0000000000000018 32
0.5997703431697389  -6.0421198740758237 45.6255942658034002 1.1831380647667133 8.0000000000000000 33
0.6170258225275496  -6.2060846034752073 47.2652243024618315 1.1774047254593225 8.0000000000000000 34
0.6342693012014085  -6.3632161723871805 48.8923306525484094 1.1720752653719606 8.0000000000000018 35
0.6515016880601392  -6.5139116590497386 50.5040231974286797 1.1671152323635243 8.0000000000000018 36
0.6687238302528375  -6.6585359340661796 52.0978257594458114 1.1624926727262228 7.9999999999999964 37
0.6859365251062545  -6.7974239864647537 53.6716125607228562 1.1581780063090641 7.9999999999999982 38
0.7031405300969802  -6.9308831752905675 55.2235549216385522 1.1541439055508880 8.0000000000000018 39
0.7203365710697135  -7.0591953997261019 56.7520768126380091 1.1503651779414357 8.0000000000000000 40
0.7375253488669945  -7.1826191817955962 58.2558180147997859 1.1468186515244607 7.9999999999999982 41
0.7547075445309436  -7.3013916565610000 59.7336037771324015 1.1434830631600965 8.0000000000000018 42
0.7718838232330534  -7.4157304654824880 61.1844199815180971 1.1403389493643719 7.9999999999999973 43
0.7890548370834383  -7.5258355493668594 62.6073929396390696 1.1373685396357061 7.9999999999999991 44
0.8062212269657709  -7.6318908380975419 64.0017730504324902 1.1345556522579676 8.0000000000000000 45
0.8233836235382251  -7.7340658351446478 65.3669216420973243 1.1318855926356168 8.0000000000000000 46
0.8405426475339857  -7.8325170956888250 66.7023004099120413 1.1293450542681098 8.0000000000000000 47
0.8576989094872534  -7.9273895980471778 68.0074629406335589 1.1269220225085192 7.9999999999999982 48
0.8748530090022313  -8.0188180089462975 69.2820478864974660 1.1246056812760146 7.9999999999999964 49
0.8920055336734313  -8.1069278440268331 70.5257734172699031 1.1223863229046160 8.0000000000000036 50
0.9091570577559218  -8.1918365257673482 71.7384326378024610 1.1202552613127978 8.0000000000000000 51
0.9263081406740392  -8.2736543417648889 72.9198897114792857 1.1182047486715436 8.0000000000000000 52
0.9434593254467663  -8.3524853069894647 74.0700764771463014 1.1162278957336731 7.9999999999999982 53
0.9606111370976426  -8.4284279342289228 75.1889893889052559 1.1143185959663697 7.9999999999999964 54
0.9777640811068810  -8.5015759174484593 76.2766866448402254 1.1124714536030331 7.9999999999999964 55
0.9949186419534958  -8.5720187332011726 77.3332854026378982 1.1106817157014059 8.0000000000000000 56
1.0120752817858363  -8.6398421655389903 78.3589590074695650 1.1089452082635911 8.0000000000000018 57
1.0292344392501032  -8.7051287600881597 79.3539341807530150 1.1072582764412786 7.9999999999999964 58
1.0463965284982895  -8.7679582130732356 80.3184881378185622 1.1056177288173099 7.9999999999999982 59
1.0635619383896215  -8.8284077011033713 81.2529456184119141 1.1040207857234996 7.9999999999999991 60
1.0807310318930055  -8.8865521574828286 82.1576758267040788 1.1024650315252402 7.9999999999999982 61
1.0979041456922687  -8.9424645006813996 83.0330892873895436 1.1009483707763648 8.0000000000000000 62
1.1150815899910829  -8.9962158204114964 83.8796346318640786 1.0994689881235797 7.9999999999999964 63
1.1322636485103919  -9.0478755265145558 84.6977953337178064 1.0980253118188066 8.0000000000000018 64
1.1494505786678706  -9.0975114655738540 85.4880864161591205 1.0966159806801166 8.0000000000000000 65
1.1666426119263906  -9.1451900098507224 86.2510511558078576 1.0952398143278210 8.0000000000000000 66
1.1838399542965863  -9.1909761227987055 86.9872578078293230 1.0938957865114594 8.0000000000000018 67
1.2010427869773559  -9.2349334050528675 87.6972963768853759 1.0925830013359854 7.9999999999999982 68
1.2182512671173980  -9.2771241244286831 88.3817754570793994 1.0913006721910534 8.0000000000000000 69
1.2354655286806293  -9.3176092331025426 89.0413191621773876 1.0900481031857407 7.9999999999999982 70
1.2526856833984794  -9.3564483747913858 89.6765641650774796 1.0888246728920981 8.0000000000000036 71
1.2699118217925138  -9.3936998844063329 90.2881568629183420 1.0876298202041159 7.9999999999999964 72
1.2871440142515813  -9.4294207823300162 90.8767506815129593 1.0864630321239399 7.9999999999999991 73
1.3043823121486200  -9.4636667651600526 91.4430035300498929 1.0853238332938733 8.0000000000000000 74
1.3216267489833300  -9.4964921944781224 91.9875754143281625 1.0842117771008495 8.0000000000000018 75
1.3388773415381237  -9.5279500849420309 92.5111262142293782 1.0831264381890406 8.0000000000000000 76
1.3561340910359982  -9.5580920927620170 93.0143136287507559 1.0820674062261029 7.9999999999999982 77
1.3733969842902432  -9.5869685054093328 93.4977912897408316 1.0810342807787556 8.0000000000000000 78
1.3906659948371605  -9.6146282332163828 93.9622070435305545 1.0800266671639074 7.9999999999999947 79
1.4079410840441944  -9.6411188033615982 94.4082013979444241 1.0790441731520737 8.0000000000000000 80
1.4252222021870471  -9.6664863565877930 94.8364061306987054 1.0780864064102471 8.0000000000000000 81
1.4425092894904659  -9.6907756468794286 95.2474430539711960 1.0771529725816082 8.0000000000000000 82
1.4598022771284160  -9.7140300442189869 95.6419229289068369 1.0762434739092377 7.9999999999999991 83
1.4771010881803124  -9.7362915404554506 96.0204445230387051 1.0753575083204296 7.9999999999999991 84
1.4944056385408346  -9.7576007582460296 96.3835938029974386 1.0744946688970582 7.9999999999999991 85
1.5117158377816362  -9.7779969629748500 96.7319432544615694 1.0736545436657980 7.9999999999999964 86
1.5290315899639382  -9.7975180775066519 97.0660513210376195 1.0728367156497594 8.0000000000000000 87
1.5463527944016069  -9.8162006995996229 97.3864619536303877 1.0720407631302462 7.9999999999999982 88
1.5636793463748353  -9.8340801217764167 97.6937042618605744 1.0712662600739686 8.0000000000000018 89
1.5810111377949965  -9.8511903534356406 97.9882922591805965 1.0705127766869862 8.0000000000000000 90
1.5983480578216072  -9.8675641449762139 98.2707246935223395 1.0697798800621388 7.9999999999999947 91
1.6156899934326636  -9.8832330137028155 98.5414849555582180 1.0690671348915983 8.0000000000000000 92
1.6330368299498461  -9.8982272712810975 98.8010410569638680 1.0683741042205446 8.0000000000000000 93
1.6503884515203022  -9.9125760525156714 99.0498456714163780 1.0677003502219100 7.9999999999999956 94
1.6677447415568583  -9.9263073452313026 99.2883362314407094 1.0670454349755456 7.9999999999999982 95
1.6851055831386283  -9.9394480210470988 99.5169350746135564 1.0664089212382204 8.0000000000000000 96
1.7024708593740463  -9.9520238668453267 99.7360496330465196 1.0657903731935341 8.0000000000000018 97
1.7198404537284078  -9.9640596167484681 99.9460726604853988 1.0651893571731070 8.0000000000000018 98
1.7372142503180001  -9.9755789844319711 100.1473824917748345 1.0646054423424258 7.9999999999999982 99
1.7545921341729047  -9.9866046956136483 100.3403433298487357 1.0640382013464271 8.0000000000000000 100
1.7719739914705210  -9.9971585205744304 100.5253055558015518 1.0634872109113551 7.9999999999999964 101
1.7893597097418139  -10.0072613065793732 100.7026060579818534 1.0629520524006726 8.0000000000000000 102
1.8067491780522356  -10.0169330100806313 100.8725685764160858 1.0624323123238155 8.0000000000000000 103
1.8241422871592001  -10.0261927285977190 101.0355040592221059 1.0619275827974586 8.0000000000000000 104
1.8415389296479150  -10.0350587321822378 101.1917110280021177 1.0614374619596338 8.0000000000000000 105
1.8589390000472983  -10.0435484943862843 101.3414759495172319 1.0609615543376296 8.0000000000000000 106
1.8763423949276179  -10.0516787226647519 101.4850736112359044 1.0604994711710265 7.9999999999999982 107
1.8937490129814090  -10.0594653881519918 101.6227674986212577 1.0600508306915866 8.0000000000000000 108
1.9111587550891387  -10.0669237547627191 101.7548101722719167 1.0596152583619647 8.0000000000000000 109
1.9285715243709924  -10.0740684075761511 101.8814436432638502 1.0591923870753981 7.9999999999999982 110
1.9459872262260820  -10.0809132804699804 102.0028997452530604 1.0587818573186611 7.9999999999999982 111
1.9634057683602806  -10.0874716829784195 102.1194005020942939 1.0583833173006352 8.0000000000000018 112
1.9808270608038114  -10.0937563263549812 102.2311584899072159 1.0579964230488788 7.9999999999999982 113
1.9982510159196409  -10.0997793488267931 102.3383771926863233 1.0576208384765899 7.9999999999999991 114
2.0156775484036467  -10.1055523400321619 102.4412513506908624 1.0572562354222896 7.9999999999999956 115
2.0331065752774551  -10.1110863646384708 102.5399673009899715 1.0569022936645363 8.0000000000000000 116
2.0505380158747846  -10.1163919851408934 102.6347033096496943 1.0565587009138668 7.9999999999999982 117
2.0679717918220537  -10.1214792838467815 102.7256298951596847 1.0562251527841202 7.9999999999999991 118
2.0854078270139511  -10.1263578840532684 102.8129101427875867 1.0559013527451515 8.0000000000000018 119
2.1028460475846207  -10.1310369704286121 102.8967000096357083 1.0555870120588737 7.9999999999999973 120
2.1202863818750397  -10.1355253086101378 102.9771486202478599 1.0552818497004615 8.0000000000000036 121
2.1377287603971324  -10.1398312640334218 103.0543985526762754 1.0549855922663884 7.9999999999999973 122
2.1551731157950984  -10.1439628200096159 103.1285861149830794 1.0546979738709514 7.9999999999999982 123
2.1726193828044158  -10.1479275950681114 103.1998416121899567 1.0544187360327106 7.9999999999999964 124
2.1900674982088981  -10.1517328595841807 103.2682896037423035 1.0541476275522756 8.0000000000000036 125
2.2075174007961929  -10.1553855517108431 103.3340491515845514 1.0538844043826769 7.9999999999999982 126
2.2249690313120274  -10.1588922926358300 103.3972340589794214 1.0536288294935292 7.9999999999999982 127
2.2424223324135117  -10.1622594011842757 103.4579531002246711 1.0533806727300310 7.9999999999999982 128
2.2598772486217578  -10.1654929077885559 103.5163102414510661 1.0531397106678160 8.0000000000000071 129
2.2773337262740490  -10.1685985678465372 103.5724048526944472 1.0529057264645250 8.0000000000000000 130
2.2947917134757740  -10.1715818744897586 103.6263319114594452 1.0526785097089473 7.9999999999999964 131
2.3122511600523139  -10.1744480707827005 103.6781821979936495 1.0524578562684264 7.9999999999999982 132
2.3297120175010426  -10.1772021613744297 103.7280424825097214 1.0522435681352298 8.0000000000000000 133
2.3471742389435906  -10.1798489236234317 103.7759957045926598 1.0520354532724570 7.9999999999999964 134
2.3646377790785049  -10.1823929182162214 103.8221211450380537 1.0518333254600312 8.0000000000000000 135
2.3821025941344032  -10.1848384992998238 103.8664945903667984 1.0516370041412340 8.0000000000000000 136
2.3995686418237376  -10.1871898241479464 103.9091884902653646 1.0514463142702153 8.0000000000000000 137
2.4170358812972341  -10.1894508623800597 103.9502721081991155 1.0512610861608429 8.0000000000000018 138
2.4345042730990936  -10.1916254047520987 103.9898116654443072 1.0510811553372106 7.9999999999999982 139
2.4519737791230041  -10.1937170715371366 104.0278704787829156 1.0509063623860955 8.0000000000000018 140
2.4694443625690226  -10.1957293205134505 104.0645090920999536 1.0507365528115933 7.9999999999999982 141
2.4869159879013623  -10.1976654545775443 104.0997854021202471 1.0505715768921586 8.0000000000000000 142
2.5043886208071218  -10.1995286289981113 104.1337547785147422 1.0504112895401985 7.9999999999999956 143
2.5218622281559808  -10.2013218583274572 104.1664701786039586 1.0502555501643966 7.9999999999999982 144
2.5393367779608855  -10.2030480229853815 104.1979822568773528 1.0501042225348602 8.0000000000000000 145
2.5568122393397337  -10.2047098755306145 104.2283394695452614 1.0499571746512015 7.9999999999999964 146
2.5742885824780659  -10.2063100466340195 104.2575881743299675 1.0498142786136313 7.9999999999999982 147
2.5917657785927810  -10.2078510507672036 104.2857727256992177 1.0496754104971009 8.0000000000000036 148
2.6092437998968552  -10.2093352916197748 104.3129355657367228 1.0495404502285557 8.0000000000000036 149
2.6267226195650810  -10.2107650672580146 104.3391173108405496 1.0494092814673097 7.9999999999999973 150
2.6442022117008053  -10.2121425750367916 104.3643568344301968 1.0492817914885508 8.0000000000000036 151
2.6616825513036710  -10.2134699162765354 104.3886913458388221 1.0491578710699740 8.0000000000000000 152
2.6791636142383339  -10.2147491007164639 104.4121564655613099 1.0490374143815457 8.0000000000000000 153
2.6966453772041583  -10.2159820507544001 104.4347862970206080 1.0489203188783507 8.0000000000000000 154
2.7141278177058683  -10.2171706054835827 104.4566134950085683 1.0488064851965140 8.0000000000000018 155
2.7316109140251319  -10.2183165245361298 104.4776693309535176 1.0486958170521490 7.9999999999999982 156
2.7490946451930762  -10.2194214917423967 104.4979837551582023 1.0485882211432958 8.0000000000000018 157
2.7665789909636982  -10.2204871186150115 104.5175854561467332 1.0484836070547914 8.0000000000000000 158
2.7840639317881610  -10.2215149476662788 104.5365019172544692 1.0483818871660355 7.9999999999999964 159
2.8015494487899533  -10.2225064555667906 104.5547594705876691 1.0482829765615798 8.0000000000000036 160
2.8190355237408897  -10.2234630561528537 104.5723833484739203 1.0481867929444864 7.9999999999999938 161
2.8365221390379300  -10.2243861032905023 104.5893977325224000 1.0480932565524110 7.9999999999999982 162
2.8540092776808019  -10.2252768936024871 104.6058258004028119 1.0480022900763122 8.0000000000000036 163
2.8714969232503922  -10.2261366690653723 104.6216897704515247 1.0479138185817580 8.0000000000000000 164
2.8889850598879039  -10.2269666194827629 104.6370109442069491 1.0478277694327485 8.0000000000000036 165
2.9064736722747382  -10.2277678848409277 104.6518097469692066 1.0477440722179820 7.9999999999999982 166
2.9239627456130921  -10.2285415575523633 104.6661057664807544 1.0476626586795135 7.9999999999999947 167
2.9414522656072477  -10.2292886845928646 104.6799177898128335 1.0475834626437284 8.0000000000000018 168
2.9589422184455261  -10.2300102695373258 104.6932638385451071 1.0475064199545634 8.0000000000000036 169
2.9764325907828963  -10.2307072744990908 104.7061612023184978 1.0474314684089265 8.0000000000000036 170
2.9939233697242051  -10.2313806219777792 104.7186264708372789 1.0473585476942266 8.0000000000000000 171
3.0114145428080175  -10.2320311966197988 104.7306755643957530 1.0472875993279671 8.0000000000000018 172
3.0289060979910452  -10.2326598468959737 104.7423237629973016 1.0472185665993283 8.0000000000000000 173
3.0463980236331394  -10.2332673867003709 104.7535857341345888 1.0471513945126898 8.0000000000000000 174
3.0638903084828395  -10.2338545968739645 104.7644755592930466 1.0470860297330147 7.9999999999999982 175
3.0813829416634406  -10.2344222266570490 104.7750067592387211 1.0470224205330523 8.0000000000000000 176
3.0988759126595844  -10.2349709950736525 104.7851923181484892 1.0469605167422866 8.0000000000000000 177
3.1163692113043355  -10.2355015922515058 104.7950447066368440 1.0469002696975882 8.0000000000000000 178
3.1338628277667411  -10.2360146806804035 104.8045759037326121 1.0468416321955001 8.0000000000000036 179
3.1513567525398427  -10.2365108964122218 104.8137974178539906 1.0467845584461073 7.9999999999999991 180
3.1688509764291419  -10.2369908502053093 104.8227203068310160 1.0467290040284492 7.9999999999999982 181
3.1863454905414810  -10.2374551286158759 104.8313551970194197 1.0466749258474004 8.0000000000000000 182
3.2038402862743500  -10.2379042950391401 104.8397123015489711 1.0466222820919908 8.0000000000000000 183
3.2213353553055768  -10.2383388907024884 104.8478014377482594 1.0465710321951058 8.0000000000000000 184
3.2388306895834114  -10.2387594356130300 104.8556320437834728 1.0465211367945235 8.0000000000000000 185
3.2563262813169720  -10.2391664294617861 104.8632131945492034 1.0464725576952403 8.0000000000000000 186
3.2738221229670503  -10.2395603524865493 104.8705536168462089 1.0464252578330440 8.0000000000000000 187
3.2913182072372549  -10.2399416662954046 104.8776617038799941 1.0463792012392894 8.0000000000000036 188
3.3088145270654881  -10.2403108146528670 104.8845455291115911 1.0463343530068354 7.9999999999999991 189
3.3263110756157359  -10.2406682242303173 104.8912128594918585 1.0462906792571056 8.0000000000000000 190
3.3438078462701668  -10.2410143053225742 104.8976711681072516 1.0462481471082292 8.0000000000000036 191
3.3613048326215211  -10.2413494525320630 104.9039276462653731 1.0462067246442281 8.0000000000000000 192
3.3788020284657851  -10.2416740454223323 104.9099892150465223 1.0461663808852193 8.0000000000000000 193
3.3962994277951353  -10.2419884491421751 104.9158625363449460 1.0461270857585814 8.0000000000000000 194
