 # inv_tmp, energy, phys_var, phys_doublon, phys_num, step_i
0.0206842322088548  7.3079893995867939 89.6990440011493320 1.9622412785700423 7.9999999999999991 1
0.0410517043677525  6.5619018356243535 78.7047892511816940 1.9160393486597371 7.9999999999999991 2
0.0611218510107401  5.8354336332892611 68.9181693211860420 1.8712898407598246 8.0000000000000000 3
0.0809149506556089  5.1307559952709925 60.2990673881298633 1.8282080783175589 7.9999999999999982 4
0.1004515593863277  4.4495294937046070 52.7921454373785579 1.7869631495494940 8.0000000000000000 5
0.1197520556695713  3.7929519213324649 46.3308811838867456 1.7476800469769158 8.0000000000000018 6
0.1388362940948863  3.1618143420636411 40.8413067540292332 1.7104430182126609 7.9999999999999991 7
0.1577233561972186  2.5565588650455249 36.2452851438684860 1.6752996148002026 8.0000000000000000 8
0.1764313817371090  1.9773336082532253 32.4632459761061085 1.6422650467799011 8.0000000000000000 9
0.1949774628636275  1.4240422135940216 29.4163686360019945 1.6113265728253943 8.0000000000000018 10
0.2133775851958297  0.8963868449009982 27.0282461931010864 1.5824477584189811 7.9999999999999982 11
0.2316466027866150  0.3939047182661127 25.2260896352509718 1.5555725090461014 8.0000000000000000 12
0.2497982371926226  -0.0840011210770187 23.9415430584240099 1.5306288323627795 7.9999999999999982 13
0.2678450938206772  -0.5380357750590299 23.1111812770259917 1.5075323084962649 7.9999999999999982 14
0.2857986910320571  -0.9689902065891409 22.6767560148542060 1.4861892585730450 7.9999999999999982 15
0.3036694990837799  -1.3777218210889863 22.5852485781113472 1.4664996050900405 8.0000000000000000 16
0.3214669869506382  -1.7651372618885888 22.7887778145662665 1.4483594188905884 8.0000000000000000 17
0.3391996755573652  -2.1321769864479139 23.2444034526280490 1.4316631492252230 8.0000000000000000 18
0.3568751961267147  -2.4798013771387017 23.9138571720507649 1.4163055368356452 8.0000000000000000 19
0.3745003523645616  -2.8089782758376316 24.7632271587013264 1.4021832151398976 8.0000000000000000 20
0.3920811851673415  -3.1206719140941765 25.7626163940687292 1.3891960107045684 8.0000000000000000 21
0.4096230385194043  -3.4158332476596609 26.8857903877435440 1.3772479603571111 7.9999999999999982 22
0.4271306252822502  -3.6953917074032230 28.1098263206617816 1.3662480677128426 7.9999999999999982 23
0.4446080916723990  -3.9602483604097012 29.4147724875593113 1.3561108260146975 8.0000000000000000 24
0.4620590793718609  -4.2112704461337058 30.7833243955693163 1.3467565367445622 8.0000000000000000 25
0.4794867843987826  -4.4492872211308132 32.2005218053351001 1.3381114544499673 8.0000000000000018 26
0.4968940120676094  -4.6750870176566934 33.6534693246405681 1.3301077878076806 8.0000000000000018 27
0.5142832275713787  -4.8894153994699625 35.1310818289565816 1.3226835853914336 7.9999999999999982 28
0.5316566019103710  -5.0929742837612579 36.6238549430375926 1.3157825322400041 7.9999999999999956 29
0.5490160530621868  -5.2864218912080343 38.1236600319681074 1.3093536804417854 8.0000000000000000 30
0.5663632824331786  -5.4703733858576227 39.6235625809713383 1.3033511338317936 8.0000000000000036 31
0.5836998067480068  -5.6454020715992641 41.1176624553789125 1.2977337037523604 7.9999999999999991 32
0.6010269856233094  -5.8120410210086098 42.6009542925072537 1.2924645498182263 7.9999999999999982 33
0.6183460451350888  -5.9707850240138196 44.0692061557998755 1.2875108168561127 8.0000000000000018 34
0.6356580977304033  -6.1220927569911172 45.5188545518003878 1.2828432767192954 8.0000000000000018 35
0.6529641588557256  -6.2663890866154199 46.9469139491524956 1.2784359815349997 8.0000000000000000 36
0.6702651606804053  -6.4040674363568133 48.3508990263012493 1.2742659331269202 7.9999999999999991 37
0.6875619632873579  -6.5354921564163959 49.7287579947391265 1.2703127718498046 8.0000000000000018 38
0.7048553636874274  -6.6610008497993096 51.0788154845324769 1.2665584868501958 7.9999999999999982 39
0.7221461029914600  -6.7809066179313984 52.3997236283428407 1.2629871487942947 8.0000000000000036 40
0.7394348720472169  -6.8955001986488043 53.6904201315341396 1.2595846653460345 8.0000000000000018 41
0.7567223158186845  -7.0050519775168576 54.9500922636213645 1.2563385591024350 7.9999999999999991 42
0.7740090367546044  -7.1098138603074972 56.1781458463353118 1.2532377672680490 8.0000000000000000 43
0.7912955973623006  -7.2100210001655602 57.3741784433996713 1.2502724620482093 7.9999999999999991 44
0.8085825221730256  -7.3058933776226676 58.5379560752452477 1.2474338905376763 7.9999999999999982 45
0.8258702992567386  -7.3976372352869060 59.6693928876506092 1.2447142327566054 8.0000000000000000 46
0.8431593814179167  -7.4854463718626025 60.7685332966369174 1.2421064764223351 7.9999999999999982 47
0.8604501871799934  -7.5695033022501086 61.8355362132372122 1.2396043070290315 8.0000000000000018 48
0.8777431016444661  -7.6499802919503308 62.8706610216867787 1.2372020118261560 7.9999999999999982 49
0.8950384772916851  -7.7270402749522216 63.8742550440256451 1.2348943963315957 8.0000000000000018 50
0.9123366347737909  -7.8008376648059947 64.8467422740430948 1.2326767120785509 8.0000000000000000 51
0.9296378637361247  -7.8715190687630425 65.7886132049817576 1.2305445943710627 7.9999999999999982 52
0.9469424236915397  -7.9392239147676040 66.7004156094700846 1.2284940089064222 8.0000000000000036 53
0.9642505449622543  -8.0040850007792059 67.5827461577836885 1.2265212062102289 7.9999999999999973 54
0.9815624296959576  -8.0662289754436500 68.4362427826753219 1.2246226829185278 8.0000000000000000 55
0.9988782529566790  -8.1257767585589828 69.2615777165353421 1.2227951490291509 8.0000000000000000 56
1.0161981638861763  -8.1828439091423810 70.0594511403217695 1.2210355003296154 8.0000000000000036 57
1.0335222869281553  -8.2375409482230779 70.8305853942318322 1.2193407952903206 8.0000000000000036 58
1.0508507231052533  -8.2899736427940915 71.5757197080799017 1.2177082357888038 8.0000000000000018 59
1.0681835513372575  -8.3402432566689164 72.2956054153195851 1.2161351511026417 8.0000000000000000 60
1.0855208297883114  -8.3884467733257075 72.9910016190478501 1.2146189846752111 7.9999999999999991 61
1.1028625972307178  -8.4346770951915104 73.6626712815259879 1.2131572832196065 7.9999999999999982 62
1.1202088744132812  -8.4790232232301879 74.3113777110473279 1.2117476877817037 7.9999999999999982 63
1.1375596654227975  -8.5215704201556441 74.9378814216301237 1.2103879264337349 8.0000000000000036 64
1.1549149590282097  -8.5624003600984260 75.5429373422036434 1.2090758083150095 8.0000000000000000 65
1.1722747299980230  -8.6015912671107699 76.1272923528471921 1.2078092187768508 8.0000000000000000 66
1.1896389403827425  -8.6392180445002769 76.6916831263477121 1.2065861154246986 8.0000000000000018 67
1.2070075407552985  -8.6753523966357804 77.2368342539520540 1.2054045248820138 8.0000000000000000 68
1.2243804714036235  -8.7100629445661770 77.7634566347628038 1.2042625401283997 8.0000000000000000 69
1.2417576634707066  -8.7434153365324807 78.2722461088089290 1.2031583182886005 8.0000000000000000 70
1.2591390400385523  -8.7754723542304447 78.7638823144351790 1.2020900787700746 7.9999999999999991 71
1.2765245171534734  -8.8062940154930391 79.2390277513171952 1.2010561016649826 8.0000000000000000 72
1.2939140047910891  -8.8359376739048976 79.6983270311245064 1.2000547263479961 8.0000000000000036 73
1.3113074077602125  -8.8644581157307734 80.1424062986174874 1.1990843502145787 8.0000000000000000 74
1.3287046265455495  -8.8919076544344584 80.5718728067845973 1.1981434275156646 8.0000000000000000 75
1.3461055580897523  -8.9183362229794252 80.9873146304704221 1.1972304682540882 7.9999999999999982 76
1.3635100965159139  -8.9437914640352840 81.3893005038337378 1.1963440371160547 7.9999999999999982 77
1.3809181337920307  -8.9683188181624356 81.7783797678670226 1.1954827524174931 8.0000000000000018 78
1.3983295603393238  -8.9919616100078308 82.1550824151205177 1.1946452850505296 7.9999999999999964 79
1.4157442655866008  -9.0147611325167247 82.5199192196757281 1.1938303574197595 7.9999999999999982 80
1.4331621384730542  -9.0367567291451056 82.8733819413052970 1.1930367423614983 8.0000000000000018 81
1.4505830679020557  -9.0579858740453520 83.2159435936328578 1.1922632620420759 7.9999999999999982 82
1.4680069431486069  -9.0784842501904741 83.5480587669527210 1.1915087868334544 8.0000000000000000 83
1.4854336542231674  -9.0982858253998646 83.8701639971837949 1.1907722341661433 7.9999999999999982 84
1.5028630921946062  -9.1174229262306117 84.1826781732152227 1.1900525673607341 7.9999999999999982 85
1.5202951494749937  -9.1359263097018122 84.4860029756415258 1.1893487944402776 7.9999999999999982 86
1.5377297200689295  -9.1538252328246461 84.7805233405815386 1.1886599669264297 8.0000000000000018 87
1.5551666997900211  -9.1711475199176871 85.0666079429365141 1.1879851786226991 7.9999999999999982 88
1.5726059864470543  -9.1879196276942441 85.3446096940509449 1.1873235643884106 7.9999999999999982 89
1.5900474800022992  -9.2041667081159950 85.6148662493114330 1.1866742989070616 8.0000000000000000 90
1.6074910827042832  -9.2199126690154216 85.8777005217436198 1.1860365954527807 8.0000000000000036 91
1.6249366991972611  -9.2351802324966243 86.1334211981526749 1.1854097046584817 8.0000000000000000 92
1.6423842366094750  -9.2499909911318525 86.3823232547935476 1.1847929132891406 8.0000000000000053 93
1.6598336046221980  -9.2643654619774374 86.6246884699653634 1.1841855430234267 8.0000000000000000 94
1.6772847155214095  -9.2783231384396156 86.8607859312890440 1.1835869492466971 8.0000000000000018 95
1.6947374842338498  -9.2918825400257035 87.0908725357611502 1.1829965198580574 7.9999999999999982 96
1.7121918283490694  -9.3050612600217857 87.3151934809777117 1.1824136740939968 8.0000000000000000 97
1.7296476681289747  -9.3178760111419816 87.5339827461885704 1.1818378613707665 8.0000000000000036 98
1.7471049265062690  -9.3303426691983109 87.7474635620869492 1.1812685601474657 8.0000000000000000 99
1.7645635290730626  -9.3424763148433581 87.9558488684508859 1.1807052768115032 8.0000000000000018 100
1.7820234040608396  -9.3542912734402996 88.1593417589444215 1.1801475445878629 7.9999999999999982 101
1.7994844823128631  -9.3658011531171645 88.3581359125543884 1.1795949224734070 7.9999999999999982 102
1.8169466972500077  -9.3770188810634476 88.5524160112872920 1.1790469941971637 7.9999999999999973 103
1.8344099848309265  -9.3879567381284605 88.7423581438778797 1.1785033672074230 8.0000000000000000 104
1.8518742835073720  -9.3986263917812032 88.9281301953761272 1.1779636716862121 7.9999999999999982 105
1.8693395341754175  -9.4090389274921566 89.1098922225752688 1.1774275595916048 8.0000000000000000 106
1.8868056801232576  -9.4192048785968510 89.2877968153267432 1.1768947037281199 7.9999999999999964 107
1.9042726669761905  -9.4291342547010828 89.4619894438617109 1.1763647968453688 7.9999999999999991 108
1.9217404426393414  -9.4388365686867584 89.6326087922954855 1.1758375507649510 8.0000000000000000 109
1.9392089572386042  -9.4483208623766526 89.7997870785473111 1.1753126955355151 8.0000000000000000 110
1.9566781630602543  -9.4575957309151395 89.9636503609442855 1.1747899786157860 8.0000000000000000 111
1.9741480144896206  -9.4666693459208773 90.1243188318165522 1.1742691640852860 8.0000000000000018 112
1.9916184679491611  -9.4755494774659752 90.2819070984170651 1.1737500318823952 8.0000000000000000 113
2.0090894818362566  -9.4842435149348354 90.4365244515206825 1.1732323770693474 8.0000000000000018 114
2.0265610164609940  -9.4927584868140666 90.5882751220739806 1.1727160091236737 8.0000000000000036 115
2.0440330339841708  -9.5011010794635986 90.7372585262784099 1.1722007512556076 8.0000000000000018 116
2.0615054983557406  -9.5092776549171028 90.8835694994992878 1.1716864397508764 7.9999999999999964 117
2.0789783752538700  -9.5172942677585084 91.0272985193935824 1.1711729233383077 8.0000000000000000 118
2.0964516320247704  -9.5251566811191477 91.1685319186544092 1.1706600625816441 8.0000000000000036 119
2.1139252376234352  -9.5328703818391496 91.3073520877683080 1.1701477292949369 7.9999999999999964 120
2.1313991625553950  -9.5404405948341218 91.4438376681769540 1.1696358059808907 7.9999999999999982 121
2.1488733788195891  -9.5478722967069984 91.5780637362299217 1.1691241852914858 7.9999999999999964 122
2.1663478598524324  -9.5551702286432736 91.7101019783107603 1.1686127695102542 7.9999999999999964 123
2.1838225804731359  -9.5623389086257866 91.8400208575086054 1.1681014700555317 7.9999999999999982 124
2.2012975168303432  -9.5693826430041096 91.9678857721994802 1.1675902070040367 8.0000000000000036 125
2.2187726463501094  -9.5763055374515655 92.0937592068920026 1.1670789086341249 8.0000000000000000 126
2.2362479476852672  -9.5831115073418243 92.2177008756827661 1.1665675109880800 8.0000000000000000 127
2.2537234006661850  -9.5898042875750384 92.3397678586539001 1.1660559574527820 7.9999999999999982 128
2.2711989862529403  -9.5963874418825981 92.4600147315374983 1.1655441983581500 7.9999999999999964 129
2.2886746864889118  -9.6028643716375583 92.5784936889567973 1.1650321905927203 8.0000000000000000 130
2.3061504844557841  -9.6092383241971966 92.6952546615460165 1.1645198972357615 7.9999999999999982 131
2.3236263642299622  -9.6155124008021158 92.8103454272378059 1.1640072872053402 7.9999999999999991 132
2.3411023108403888  -9.6216895640556643 92.9238117169949192 1.1634943349217368 7.9999999999999982 133
2.3585783102277409  -9.6277726450059191 93.0356973152551774 1.1629810199856703 8.0000000000000000 134
2.3760543492049946  -9.6337643498514431 93.1460441553432474 1.1624673268707593 7.9999999999999982 135
2.3935304154193320  -9.6396672662909371 93.2548924100954650 1.1619532446296972 8.0000000000000000 136
2.4110064973153684  -9.6454838695359228 93.3622805779316423 1.1614387666136095 8.0000000000000000 137
2.4284825840996747  -9.6512165280044826 93.4682455645984334 1.1609238902040973 7.9999999999999982 138
2.4459586657065655  -9.6568675087131908 93.5728227607976208 1.1604086165574676 8.0000000000000000 139
2.4634347327651227  -9.6624389823835095 93.6760461159040290 1.1598929503606785 8.0000000000000036 140
2.4809107765674328  -9.6679330282779645 93.7779482079682793 1.1593768995985363 8.0000000000000000 141
2.4983867890379909  -9.6733516387807814 93.8785603101899966 1.1588604753317093 7.9999999999999973 142
2.5158627627042636  -9.6786967237365822 93.9779124540387016 1.1583436914851102 8.0000000000000000 143
2.5333386906683497  -9.6839701145603119 94.0760334891903938 1.1578265646462411 7.9999999999999982 144
2.5508145665797377  -9.6891735681307445 94.1729511404419952 1.1573091138731098 7.9999999999999973 145
2.5682903846091039  -9.6943087704791147 94.2686920617545354 1.1567913605113032 8.0000000000000036 146
2.5857661394231308  -9.6993773402840109 94.3632818875717163 1.1562733280198696 8.0000000000000036 147
2.6032418261603145  -9.7043808321830412 94.4567452815519175 1.1557550418056386 8.0000000000000000 148
2.6207174404077205  -9.7093207399109680 94.5491059828443667 1.1552365290656279 8.0000000000000000 149
2.6381929781786742  -9.7141984992737722 94.6403868500349006 1.1547178186372087 8.0000000000000036 150
2.6556684358913354  -9.7190154909674256 94.7306099028791948 1.1541989408557023 7.9999999999999982 151
2.6731438103481402  -9.7237730432498530 94.8197963619379607 1.1536799274191085 8.0000000000000036 152
2.6906190987160792  -9.7284724344736713 94.9079666862178897 1.1531608112596454 7.9999999999999982 153
2.7080942985077794  -9.7331148954875424 94.9951406089234354 1.1526416264218418 8.0000000000000000 154
2.7255694075633636  -9.7377016119128736 95.0813371714127697 1.1521224079468768 8.0000000000000000 155
2.7430444240330614  -9.7422337263027554 95.1665747554517623 1.1516031917629275 7.9999999999999964 156
2.7605193463605424  -9.7467123401892923 95.2508711138515878 1.1510840145812486 7.9999999999999991 157
2.7779941732669484  -9.7511385160253639 95.3342433995721024 1.1505649137977481 8.0000000000000000 158
2.7954689037355966  -9.7555132790263901 95.4167081933705958 1.1500459273998238 8.0000000000000018 159
2.8129435369973321  -9.7598376189175191 95.4982815300679277 1.1495270938782283 8.0000000000000000 160
2.8304180725165016  -9.7641124915911863 95.5789789235053462 1.1490084521437507 7.9999999999999956 161
2.8478925099775321  -9.7683388206797659 95.6588153902558389 1.1484900414485033 8.0000000000000036 162
2.8653668492720845  -9.7725174990479129 95.7378054721539513 1.1479719013116005 7.9999999999999973 163
2.8828410904867634  -9.7766493902089024 95.8159632577074518 1.1474540714490713 8.0000000000000036 164
2.9003152338913689  -9.7807353296686941 95.8933024024413925 1.1469365917077692 8.0000000000000036 165
2.9177892799276544  -9.7847761262018977 95.9698361482356574 1.1464195020031505 8.0000000000000000 166
2.9352632291985881  -9.7887725630630005 96.0455773417019998 1.1459028422607214 8.0000000000000053 167
2.9527370824580874  -9.7927253991362928 96.1205384516515124 1.1453866523609901 8.0000000000000036 168
2.9702108406012129  -9.7966353700278024 96.1947315856984204 1.1448709720877883 8.0000000000000000 169
2.9876845046548031  -9.8005031891021392 96.2681685060441339 1.1443558410797867 8.0000000000000036 170
3.0051580757685343  -9.8043295484672441 96.3408606444815803 1.1438412987850675 7.9999999999999982 171
3.0226315552063840  -9.8081151199097594 96.4128191166615380 1.1433273844186305 7.9999999999999964 172
3.0401049443384882  -9.8118605557835092 96.4840547356562581 1.1428141369226699 8.0000000000000036 173
3.0575782446333784  -9.8155664898535520 96.5545780248566672 1.1423015949295177 8.0000000000000018 174
3.0750514576505719  -9.8192335380982847 96.6243992302375432 1.1417897967271253 7.9999999999999982 175
3.0925245850335150  -9.8228622994715025 96.6935283320205343 1.1412787802269622 8.0000000000000018 176
3.1099976285028577  -9.8264533566266419 96.7619750557670955 1.1407685829342125 8.0000000000000000 177
3.1274705898500499  -9.8300072766052224 96.8297488829293087 1.1402592419201818 8.0000000000000000 178
3.1449434709312412  -9.8335246114911961 96.8968590608862570 1.1397507937967892 7.9999999999999982 179
3.1624162736614809  -9.8370058990330147 96.9633146124909331 1.1392432746930554 8.0000000000000000 180
3.1798890000091959  -9.8404516632351395 97.0291243451529510 1.1387367202334888 8.0000000000000018 181
3.1973616519909465  -9.8438624149204248 97.0942968594803801 1.1382311655182795 7.9999999999999964 182
3.2148342316664356  -9.8472386522651121 97.1588405575027139 1.1377266451052204 8.0000000000000000 183
3.2323067411337743  -9.8505808613074599 97.2227636504953949 1.1372231929932459 8.0000000000000036 184
3.2497791825249882  -9.8538895164317832 97.2860741664262179 1.1367208426075455 8.0000000000000018 185
3.2672515580017456  -9.8571650808288531 97.3487799570435897 1.1362196267861444 8.0000000000000000 186
3.2847238697513164  -9.8604080069339979 97.4108887046221810 1.1357195777678926 8.0000000000000036 187
3.3021961199827388  -9.8636187368439607 97.4724079283852092 1.1352207271817809 7.9999999999999938 188
3.3196683109231868  -9.8667977027137592 97.5333449906193266 1.1347231060375365 7.9999999999999964 189
3.3371404448145370  -9.8699453271343067 97.5937071024950455 1.1342267447174001 8.0000000000000000 190
3.3546125239101183  -9.8730620234920075 97.6535013296109753 1.1337316729690572 7.9999999999999991 191
3.3720845504716426  -9.8761481963111368 97.7127345972735100 1.1332379198996416 7.9999999999999982 192
3.3895565267663041  -9.8792042415798491 97.7714136955249415 1.1327455139707618 8.0000000000000000 193
3.4070284550640486  -9.8822305470606970 97.8295452839332711 1.1322544829944883 7.9999999999999964 194
3.4245003376349890  -9.8852274925864876 97.8871358961562947 1.1317648541302718 7.9999999999999982 195
3.4419721767469875  -9.8881954503419944 97.9441919442890878 1.1312766538827044 8.0000000000000000 196
