 # inv_tmp, energy, phys_var, phys_doublon, phys_num, step_i
0.0206862603467711  7.3174693505113719 89.5566384733036642 1.9551360134364064 8.0000000000000018 1
0.0410579249994350  6.5766645524575180 78.7052786159044047 1.9097804836693100 8.0000000000000000 2
0.0611331311385272  5.8535467060562336 69.0372791858610242 1.8655406944331681 8.0000000000000000 3
0.0809307442152930  5.1500502365541667 60.5210361333544355 1.8225798721807365 8.0000000000000000 4
0.1004697655412510  4.4675690629119300 53.1087110551475945 1.7810240446444938 8.0000000000000000 5
0.1197688892804513  3.8070361001615747 46.7405853729147651 1.7409666112169058 8.0000000000000000 6
0.1388461989482030  3.1690078226574760 41.3490084787727028 1.7024732189041707 7.9999999999999982 7
0.1577189812352482  2.5537449285514442 36.8617663171927816 1.6655864089938173 7.9999999999999982 8
0.1764036296784685  1.9612832637930153 33.2048076029640740 1.6303297082191530 8.0000000000000000 9
0.1949156108587163  1.3914920827100368 30.3043454600313922 1.5967110227864754 7.9999999999999991 10
0.2132694694994277  0.8441190779112641 28.0884018698377460 1.5647253336721370 7.9999999999999982 11
0.2314788542593563  0.3188232601599356 26.4878857129848981 1.5343567815225194 8.0000000000000000 12
0.2495565517449194  -0.1848022750992406 25.4372995153759476 1.5055802738886643 8.0000000000000000 13
0.2675145213771046  -0.6672152818557309 24.8751624635163253 1.4783627563950139 8.0000000000000000 14
0.2853639277435039  -1.1289146362085143 24.7442237931151503 1.4526642744392113 7.9999999999999982 15
0.3031151698055859  -1.5704339064401787 24.9915255402687855 1.4284389240087925 8.0000000000000036 16
0.3207779079092118  -1.9923366344257416 25.5683594943905774 1.4056357579212853 8.0000000000000036 17
0.3383610901898415  -2.3952122266829532 26.4301513064659694 1.3841996833991836 8.0000000000000000 18
0.3558729799495141  -2.7796717957931842 27.5362954635752963 1.3640723620376676 8.0000000000000018 19
0.3733211851780591  -3.1463436529100899 28.8499580646690674 1.3451931054836463 8.0000000000000000 20
0.3907126908193238  -3.4958684140156171 30.3378595791183017 1.3274997495534684 8.0000000000000000 21
0.4080538938079017  -3.8288938487957349 31.9700465226487438 1.3109294851236457 8.0000000000000018 22
0.4253506404254248  -4.1460696849826730 33.7196587727301562 1.2954196244863607 8.0000000000000018 23
0.4426082651976449  -4.4480426016576855 35.5626976926745897 1.2809082853980180 8.0000000000000000 24
0.4598316303838006  -4.7354516222976439 37.4777990756157990 1.2673349803234628 8.0000000000000000 25
0.4770251650810897  -5.0089240704114708 39.4460139890264401 1.2546411042208074 8.0000000000000000 26
0.4941929030479649  -5.2690721921575632 41.4505998056084408 1.2427703197756619 7.9999999999999982 27
0.5113385185041256  -5.5164904920969144 43.4768230063135945 1.2316688437456151 8.0000000000000000 28
0.5284653593579297  -5.7517537771413121 45.5117747246630486 1.2212856417483329 8.0000000000000018 29
0.5455764775145463  -5.9754158634895873 47.5441994708935880 1.2115725413542999 8.0000000000000000 30
0.5626746561088695  -6.1880088731131639 49.5643370354196975 1.2024842748006193 8.0000000000000018 31
0.5797624336717869  -6.3900430296445467 51.5637772266727836 1.1939784631793504 8.0000000000000036 32
0.5968421253692361  -6.5820068567866699 53.5353268465633789 1.1860155537634292 8.0000000000000000 33
0.6139158415482521  -6.7643676835392288 55.4728881404678873 1.1785587214108386 7.9999999999999991 34
0.6309855038844584  -6.9375723674594933 57.3713478666366967 1.1715737439138607 8.0000000000000000 35
0.6480528594552201  -7.1020481578094881 59.2264760987093837 1.1650288598885197 8.0000000000000000 36
0.6651194930673698  -7.2582036330493604 61.0348338902779872 1.1588946164527087 8.0000000000000000 37
0.6821868381539410  -7.4064296603300654 62.7936889783708949 1.1531437126120130 8.0000000000000000 38
0.6992561865263813  -7.5471003373914982 64.5009387710365587 1.1477508430242616 8.0000000000000000 39
0.7163286972324567  -7.6805738888876300 66.1550399426472069 1.1426925456880428 7.9999999999999982 40
0.7334054047297776  -7.8071934992254697 67.7549440411334132 1.1379470561185985 7.9999999999999982 41
0.7504872265440395  -7.9272880723317405 69.3000385883596977 1.1334941697441177 8.0000000000000000 42
0.7675749705421979  -8.0411729153329681 70.7900932245191683 1.1293151135734876 8.0000000000000000 43
0.7846693419156004  -8.1491503480523839 72.2252105077190123 1.1253924276431730 8.0000000000000000 44
0.8017709499376380  -8.2515102436677683 73.6057810301315953 1.1217098563319006 7.9999999999999982 45
0.8188803145351651  -8.3485305080554060 74.9324425524572177 1.1182522493210147 7.9999999999999991 46
0.8359978726928513  -8.4404775064971247 76.2060428898892042 1.1150054717588898 8.0000000000000000 47
0.8531239846944266  -8.5276064467762396 77.4276063065762514 1.1119563230433580 8.0000000000000000 48
0.8702589401940271  -8.6101617274400812 78.5983031931776566 1.1090924635516037 8.0000000000000018 49
0.8874029641038917  -8.6883772593446142 79.7194228149537025 1.1064023486090013 8.0000000000000000 50
0.9045562222808742  -8.7624767676717497 80.7923489272540678 1.1038751689852075 8.0000000000000000 51
0.9217188269929608  -8.8326740805461039 81.8185380624229310 1.1015007972277466 7.9999999999999991 52
0.9388908421476202  -8.8991734092703076 82.7995002979840962 1.0992697391822839 7.9999999999999982 53
0.9560722882658168  -8.9621696241160755 83.7367823212412077 1.0971730900983596 8.0000000000000000 54
0.9732631471884247  -9.0218485286013781 84.6319526106673834 1.0952024947746097 8.0000000000000000 55
0.9904633665052009  -9.0783871342826519 85.4865885600291620 1.0933501112546786 8.0000000000000000 56
1.0076728637001164  -9.1319539373111720 86.3022653772982267 1.0916085776413906 7.9999999999999973 57
1.0248915300104422  -9.1827091973509862 87.0805465971489951 1.0899709816504837 7.9999999999999973 58
1.0421192340004104  -9.2308052189290350 87.8229760532140773 1.0884308325750454 7.9999999999999982 59
1.0593558248533561  -9.2763866348790565 88.5310711642180763 1.0869820353771078 7.9999999999999982 60
1.0766011353889691  -9.3195906912379165 89.2063173965179885 1.0856188666633058 7.9999999999999982 61
1.0938549848145667  -9.3605475327433965 89.8501637743225956 1.0843359523370921 8.0000000000000000 62
1.1111171812211706  -9.3993804879517722 90.4640193178048690 1.0831282467509395 7.9999999999999982 63
1.1283875238366055  -9.4362063529292080 91.0492502983201462 1.0819910132084918 7.9999999999999982 64
1.1456658050488999  -9.4711356724584057 91.6071782088768742 1.0809198056892115 7.9999999999999982 65
1.1629518122139684  -9.5042730177316006 92.1390783567598959 1.0799104516870943 8.0000000000000000 66
1.1802453292619379  -9.5357172595602755 92.6461789936846429 1.0789590360708969 8.0000000000000036 67
1.1975461381166006  -9.5655618362139290 93.1296609069862882 1.0780618858865345 8.0000000000000000 68
1.2148540199423639  -9.5938950150958284 93.5906574030616980 1.0772155560331629 8.0000000000000018 69
1.2321687562327668  -9.6208001475674987 94.0302546215383899 1.0764168157533709 7.9999999999999991 70
1.2494901297541914  -9.6463559163410562 94.4494921254235464 1.0756626358852159 7.9999999999999982 71
1.2668179253578278  -9.6706365749643801 94.8493637187599177 1.0749501768297391 8.0000000000000000 72
1.2841519306723128  -9.6937121790271910 95.2308184490976544 1.0742767771924346 8.0000000000000000 73
1.3014919366887547  -9.7156488088127535 95.5947617573740160 1.0736399430610761 8.0000000000000000 74
1.3188377382491228  -9.7365087832098798 95.9420567425956392 1.0730373378854987 7.9999999999999991 75
1.3361891344482146  -9.7563508647816342 96.2735255130666303 1.0724667729275843 8.0000000000000018 76
1.3535459289586746  -9.7752304559602408 96.5899505998072527 1.0719261982518571 8.0000000000000000 77
1.3709079302877714  -9.7931997864025746 96.8920764113099295 1.0714136942289567 7.9999999999999973 78
1.3882749519739350  -9.8103080915965837 97.1806107118892299 1.0709274635257855 7.9999999999999982 79
1.4056468127303510  -9.8266017828571304 97.4562261086473285 1.0704658235574924 8.0000000000000000 80
1.4230233365422360  -9.8421246088902645 97.7195615345106035 1.0700271993776473 8.0000000000000000 81
1.4404043527238126  -9.8569178091381637 97.9712237169358957 1.0696101169840351 8.0000000000000000 82
1.4577896959403958  -9.8710202591438687 98.2117886237573856 1.0692131970184673 7.9999999999999991 83
1.4751792062004614  -9.8844686081960464 98.4418028792752864 1.0688351488399608 7.9999999999999991 84
1.4925727288220640  -9.8972974095297364 98.6617851451030674 1.0684747649514674 8.0000000000000018 85
1.5099701143774991  -9.9095392433702649 98.8722274615087429 1.0681309157611976 8.0000000000000018 86
1.5273712186196717  -9.9212248331146924 99.0735965460327321 1.0678025446603756 8.0000000000000036 87
1.5447759023932541  -9.9323831549487895 99.2663350470596839 1.0674886634000373 8.0000000000000000 88
1.5621840315333391  -9.9430415411983688 99.4508627507809564 1.0671883477502577 8.0000000000000000 89
1.5795954767539924  -9.9532257777117970 99.6275777406241048 1.0669007334259195 7.9999999999999991 90
1.5970101135287977  -9.9629601955668114 99.7968575087640062 1.0666250122638847 8.0000000000000018 91
1.6144278219652344  -9.9722677573889698 99.9590600197739292 1.0663604286371060 8.0000000000000000 92
1.6318484866744876  -9.9811701385621845 100.1145247268451897 1.0661062760919464 8.0000000000000000 93
1.6492719966380762  -9.9896878036034309 100.2635735412993370 1.0658618941956162 8.0000000000000000 94
1.6666982450725016  -9.9978400779650265 100.4065117563597482 1.0656266655813089 8.0000000000000000 95
1.6841271292929414  -10.0056452155180704 100.5436289263376040 1.0654000131792498 8.0000000000000000 96
1.7015585505768713  -10.0131204619606553 100.6751997025335470 1.0651813976224895 8.0000000000000018 97
1.7189924140283610  -10.0202821143841785 100.8014846272654097 1.0649703148168570 7.9999999999999982 98
1.7364286284436707  -10.0271455772206330 100.9227308875120315 1.0647662936650846 8.0000000000000000 99
1.7538671061786801  -10.0337254147831914 101.0391730297120318 1.0645688939356284 8.0000000000000000 100
1.7713077630185765  -10.0400354006022230 101.1510336372898990 1.0643777042672902 8.0000000000000000 101
1.7887505180501648  -10.0460885637484481 101.2585239724900958 1.0641923403011972 8.0000000000000000 102
1.8061952935370795  -10.0518972323249578 101.3618445840983640 1.0640124429322211 8.0000000000000000 103
1.8236420147981278  -10.0574730743001783 101.4611858826119857 1.0638376766723576 8.0000000000000000 104
1.8410906100889324  -10.0628271358442891 101.5567286843961341 1.0636677281190388 8.0000000000000000 105
1.8585410104870028  -10.0679698773225326 101.6486447263288255 1.0635023045217595 8.0000000000000018 106
1.8759931497803217  -10.0729112070901472 101.7370971523970837 1.0633411324408018 7.9999999999999964 107
1.8934469643595027  -10.0776605132251156 101.8222409736623604 1.0631839564922201 8.0000000000000000 108
1.9109023931135403  -10.0822266933270175 101.9042235029647401 1.0630305381735907 8.0000000000000036 109
1.9283593773291567  -10.0866181825026207 101.9831847656855359 1.0628806547653946 8.0000000000000000 110
1.9458178605937231  -10.0908429796515673 102.0592578878345762 1.0627340983031908 8.0000000000000000 111
1.9632777887017203  -10.0949086721584713 102.1325694626766705 1.0625906746160527 7.9999999999999982 112
1.9807391095646865  -10.0988224590914299 102.2032398970569318 1.0624502024270288 8.0000000000000000 113
1.9982017731245896  -10.1025911730006381 102.2713837385340412 1.0623125125116382 8.0000000000000000 114
2.0156657312705497  -10.1062213004049912 102.3371099843758856 1.0621774469106839 8.0000000000000018 115
2.0331309377588362  -10.1097190010489779 102.4005223734219499 1.0620448581938802 8.0000000000000000 116
2.0505973481360478  -10.1130901260071173 102.4617196617670061 1.0619146087710358 7.9999999999999982 117
2.0680649196653889  -10.1163402347082094 102.5207958831708766 1.0617865702477203 7.9999999999999982 118
2.0855336112559484  -10.1194746109470763 102.5778405950537149 1.0616606228225569 8.0000000000000000 119
2.1030033833948858  -10.1224982779472121 102.6329391108889126 1.0615366547234530 8.0000000000000036 120
2.1204741980824209  -10.1254160125336661 102.6861727197645990 1.0614145616802615 8.0000000000000036 121
2.1379460187695432  -10.1282323584717471 102.7376188938403203 1.0612942464315254 7.9999999999999982 122
2.1554188102983285  -10.1309516390234613 102.7873514843878837 1.0611756182631069 8.0000000000000000 123
2.1728925388447795  -10.1335779687703518 102.8354409070647932 1.0610585925766394 8.0000000000000000 124
2.1903671718640849  -10.1361152647483319 102.8819543170358486 1.0609430904858921 8.0000000000000000 125
2.2078426780382090  -10.1385672569369891 102.9269557745194703 1.0608290384392387 7.9999999999999982 126
2.2253190272257197  -10.1409374981433285 102.9705064013066504 1.0607163678665508 7.9999999999999982 127
2.2427961904137628  -10.1432293733171459 103.0126645287661233 1.0606050148489361 8.0000000000000000 128
2.2602741396720947  -10.1454461083330827 103.0534858378221372 1.0604949198098677 8.0000000000000000 129
2.2777528481090932  -10.1475907782718604 103.0930234913620041 1.0603860272263026 8.0000000000000000 130
2.2952322898296598  -10.1496663152313236 103.1313282595035048 1.0602782853585213 8.0000000000000000 131
2.3127124398949328  -10.1516755156960201 103.1684486381300587 1.0601716459974759 7.9999999999999982 132
2.3301932742837370  -10.1536210474918853 103.2044309610743369 1.0600660642285207 8.0000000000000000 133
2.3476747698556952  -10.1555054563512641 103.2393195063112330 1.0599614982104708 7.9999999999999982 134
2.3651569043159282  -10.1573311721117214 103.2731565964998310 1.0598579089690106 8.0000000000000036 135
2.3826396561812753  -10.1591005145705360 103.3059826941925081 1.0597552602035145 8.0000000000000000 136
2.4001230047479649  -10.1608156990156075 103.3378364920132952 1.0596535181064397 7.9999999999999982 137
2.4176069300606811  -10.1624788414519198 103.3687549980876668 1.0595526511944606 8.0000000000000036 138
2.4350914128829508  -10.1640919635417308 103.3987736169901268 1.0594526301506044 8.0000000000000000 139
2.4525764346688108  -10.1656569972753648 103.4279262264624180 1.0593534276766838 7.9999999999999982 140
2.4700619775356745  -10.1671757893885246 103.4562452501357370 1.0592550183553555 8.0000000000000000 141
2.4875480242383698  -10.1686501055408876 103.4837617264822143 1.0591573785211887 8.0000000000000018 142
2.5050345581442786  -10.1700816342701081 103.5105053742035892 1.0590604861401789 7.9999999999999982 143
2.5225215632095321  -10.1714719907341280 103.5365046542551539 1.0589643206971435 7.9999999999999982 144
2.5400090239562263  -10.1728227202541532 103.5617868286901597 1.0588688630905108 8.0000000000000000 145
2.5574969254505886  -10.1741353016697982 103.5863780165005466 1.0587740955340186 7.9999999999999991 146
2.5749852532820792  -10.1754111505171743 103.6103032466183862 1.0586800014648843 7.9999999999999982 147
2.5924739935433676  -10.1766516220400582 103.6335865082331793 1.0585865654580273 8.0000000000000000 148
2.6099631328111488  -10.1778580140436858 103.6562507985715342 1.0584937731459547 7.9999999999999982 149
2.6274526581277686  -10.1790315696000349 103.6783181682780537 1.0584016111439527 7.9999999999999973 150
2.6449425569836102  -10.1801734796130816 103.6998097645254688 1.0583100669802352 8.0000000000000000 151
2.6624328173002199  -10.1812848852518094 103.7207458719781528 1.0582191290307330 8.0000000000000000 152
2.6799234274141295  -10.1823668802585185 103.7411459517241212 1.0581287864582327 8.0000000000000018 153
2.6974143760613489  -10.1834205131392004 103.7610286782838358 1.0580390291555739 7.9999999999999982 154
2.7149056523624981  -10.1844467892427311 103.7804119747994349 1.0579498476926503 8.0000000000000018 155
2.7323972458085528  -10.1854466727348267 103.7993130464996341 1.0578612332669681 8.0000000000000000 156
2.7498891462471673  -10.1864210884728035 103.8177484125343284 1.0577731776575368 8.0000000000000018 157
2.7673813438695625  -10.1873709237863252 103.8357339362617893 1.0576856731818649 8.0000000000000018 158
2.7848738291979434  -10.1882970301694051 103.8532848540725553 1.0575987126558775 7.9999999999999991 159
2.8023665930734252  -10.1892002248885110 103.8704158028253062 1.0575122893565523 8.0000000000000036 160
2.8198596266444498  -10.1900812925111950 103.8871408459671102 1.0574263969871027 8.0000000000000018 161
2.8373529213556652  -10.1909409863596796 103.9034734984078483 1.0573410296445507 8.0000000000000036 162
2.8548464689372510  -10.1917800298932377 103.9194267502114570 1.0572561817895185 7.9999999999999991 163
2.8723402613946707  -10.1925991180233382 103.9350130891662900 1.0571718482181129 7.9999999999999991 164
2.8898342909988290  -10.1933989183650784 103.9502445222923512 1.0570880240357501 8.0000000000000036 165
2.9073285502766213  -10.1941800724281482 103.9651325963385631 1.0570047046328046 7.9999999999999982 166
2.9248230320018531  -10.1949431967507707 103.9796884173235583 1.0569218856619649 7.9999999999999991 167
2.9423177291865166  -10.1956888839793223 103.9939226691660821 1.0568395630171703 8.0000000000000000 168
2.9598126350724097  -10.1964177038966799 104.0078456314536481 1.0567577328140421 8.0000000000000000 169
2.9773077431230783  -10.1971302044018515 104.0214671963910433 1.0566763913717026 8.0000000000000000 170
2.9948030470160751  -10.1978269124434480 104.0347968849703051 1.0565955351958898 8.0000000000000000 171
3.0122985406355132  -10.1985083349093806 104.0478438624020328 1.0565151609632848 8.0000000000000000 172
3.0297942180649073  -10.1991749594749717 104.0606169528429064 1.0564352655069729 7.9999999999999991 173
3.0472900735802906  -10.1998272554117051 104.0731246534565742 1.0563558458029609 7.9999999999999991 174
3.0647861016435920  -10.2004656743584956 104.0853751478387608 1.0562768989576807 8.0000000000000000 175
3.0822822968962651  -10.2010906510574699 104.0973763188390393 1.0561984221964129 7.9999999999999991 176
3.0997786541531589  -10.2017026040560008 104.1091357608090817 1.0561204128525752 7.9999999999999991 177
3.1172751683966173  -10.2023019363767027 104.1206607913042319 1.0560428683578071 7.9999999999999982 178
3.1347718347708016  -10.2028890361569538 104.1319584622656578 1.0559657862328045 8.0000000000000018 179
3.1522686485762246  -10.2034642772595099 104.1430355707082072 1.0558891640788526 8.0000000000000000 180
3.1697656052644860  -10.2040280198556346 104.1538986689382398 1.0558129995700110 7.9999999999999991 181
3.1872627004332026  -10.2045806109820489 104.1645540743224103 1.0557372904459010 8.0000000000000000 182
3.2047599298211287  -10.2051223850730075 104.1750078786307370 1.0556620345050600 7.9999999999999982 183
3.2222572893034518  -10.2056536644687839 104.1852659569732396 1.0555872295988242 8.0000000000000018 184
3.2397547748872597  -10.2061747599015789 104.1953339763492039 1.0555128736256958 7.9999999999999982 185
3.2572523827071760  -10.2066859709601054 104.2052174038284136 1.0554389645261744 8.0000000000000000 186
3.2747501090211490  -10.2071875865336850 104.2149215143801229 1.0553655002780036 7.9999999999999982 187
3.2922479502063959  -10.2076798852370736 104.2244513983678615 1.0552924788918210 8.0000000000000000 188
3.3097459027554916  -10.2081631358166760 104.2338119687244244 1.0552198984071706 7.9999999999999982 189
3.3272439632725943  -10.2086375975392727 104.2430079678227344 1.0551477568888585 8.0000000000000018 190
3.3447421284698118  -10.2091035205639145 104.2520439740557237 1.0550760524236229 8.0000000000000000 191
3.3622403951636879  -10.2095611462978848 104.2609244081399140 1.0550047831171052 8.0000000000000000 192
3.3797387602718221  -10.2100107077374229 104.2696535391542767 1.0549339470910861 8.0000000000000036 193
3.3972372208095987  -10.2104524297939285 104.2782354903264661 1.0548635424809816 8.0000000000000018 194
