 # inv_tmp, energy, phys_var, phys_doublon, phys_num, step_i
0.0225036066721954  7.1253574089914400 86.5712425074745227 1.9513414082626257 7.9999999999999982 1
0.0446056015747914  6.3251641322874024 75.1056636039292869 1.9014604459570446 8.0000000000000000 2
0.0663341438229104  5.5488438651147813 64.9838609687550957 1.8530571581204338 8.0000000000000000 3
0.0877193176116740  4.8000201345007412 56.1654265710329383 1.8064400183852134 7.9999999999999991 4
0.1087919220971634  4.0814107588899864 48.5881753760853599 1.7618455880014525 7.9999999999999982 5
0.1295823863708670  3.3948216568893894 42.1733957798265990 1.7194382393400400 7.9999999999999982 6
0.1501198826628590  2.7412007545905039 36.8311919018495075 1.6793147022503976 8.0000000000000000 7
0.1704316758966189  2.1207377336045150 32.4654892454697972 1.6415121040936207 8.0000000000000000 8
0.1905427131863826  1.5329920573084832 28.9783849170004260 1.6060180269414195 8.0000000000000000 9
0.2104754296660068  0.9770320852318546 26.2736583564071680 1.5727812264299925 8.0000000000000018 10
0.2302497302989355  0.4515710336025862 24.2593872689836374 1.5417219462056082 7.9999999999999991 11
0.2498831008460764  -0.0449102749992665 22.8497152359965483 1.5127411149679322 8.0000000000000000 12
0.2693908026905798  -0.5140596498515135 21.9658836895208083 1.4857280483116400 7.9999999999999982 13
0.2887861127297368  -0.9575709002463848 21.5366729156623506 1.4605665472336096 8.0000000000000000 14
0.3080805782756268  -1.3771218163588872 21.4984017020067029 1.4371394725528803 8.0000000000000000 15
0.3272842658102587  -1.7743305831629212 21.7946223191874573 1.4153319842338270 8.0000000000000000 16
0.3464059902846405  -2.1507276247224523 22.3756251641430772 1.3950336824630059 8.0000000000000000 17
0.3654535178836252  -2.5077396668098806 23.1978420357152118 1.3761398921624974 8.0000000000000018 18
0.3844337397182266  -2.8466829884712155 24.2232128408881380 1.3585523115471232 8.0000000000000000 19
0.4033528169398108  -3.1687632268820516 25.4185597756014374 1.3421792116054458 7.9999999999999991 20
0.4222162995949292  -3.4750795748398389 26.7549965090788149 1.3269353360622531 8.0000000000000000 21
0.4410292224701466  -3.7666316838639338 28.2073875616387397 1.3127416159198209 8.0000000000000000 22
0.4597961814918561  -4.0443280123559546 29.7538643739124105 1.2995247818532438 8.0000000000000018 23
0.4785213941697398  -4.3089947175351817 31.3753988132887223 1.2872169325445459 7.9999999999999982 24
0.4972087472698257  -4.5613844779483532 33.0554313395184707 1.2757550974127718 8.0000000000000000 25
0.5158618344896367  -4.8021848552640769 34.7795491280762334 1.2650808175173134 8.0000000000000000 26
0.5344839864598727  -5.0320259689466660 36.5352086172913744 1.2551397578491579 8.0000000000000000 27
0.5530782949613912  -5.2514873755969775 38.3114968135137985 1.2458813569283835 8.0000000000000000 28
0.5716476328494445  -5.4611041261418460 40.0989259739637163 1.2372585148240398 7.9999999999999991 29
0.5901946708319826  -5.6613720273338046 41.8892567923185766 1.2292273177519646 8.0000000000000000 30
0.6087218919592725  -5.8527521664165914 43.6753458070916807 1.2217467957616170 8.0000000000000000 31
0.6272316044467175  -6.0356747751168314 45.4510133560506659 1.2147787092859903 8.0000000000000018 32
0.6457259532670582  -6.2105425158648400 47.2109289644995300 1.2082873601905295 8.0000000000000000 33
0.6642069308060830  -6.3777332727845044 48.9505115578160925 1.2022394231907496 7.9999999999999991 34
0.6826763867709560  -6.5376025251121224 50.6658423209322990 1.1966037939512413 8.0000000000000000 35
0.7011360374657093  -6.6904853732059504 52.3535883903936821 1.1913514507180389 8.0000000000000000 36
0.7195874744982272  -6.8366982785528094 54.0109358642432582 1.1864553268962708 8.0000000000000000 37
0.7380321729516220  -6.9765405701111476 55.6355308596022269 1.1818901925176970 7.9999999999999991 38
0.7564714990354920  -7.1102957605814634 57.2254275464425390 1.1776325430203909 8.0000000000000000 39
0.7749067172251097  -7.2382327081571374 58.7790422472313381 1.1736604941716813 8.0000000000000000 40
0.7933389968958324  -7.3606066521986673 60.2951128234873650 1.1699536823016765 7.9999999999999982 41
0.8117694184633224  -7.4776601451823748 61.7726626782528001 1.1664931692805407 7.9999999999999982 42
0.8301989790455456  -7.5896238982027748 63.2109687932694868 1.1632613518744814 7.9999999999999982 43
0.8486285976685181  -7.6967175531993988 64.6095332953527191 1.1602418752613910 8.0000000000000000 44
0.8670591200433818  -7.7991503918406435 65.9680581111993263 1.1574195505863871 8.0000000000000000 45
0.8854913229470182  -7.8971219885174051 67.2864223259664840 1.1547802764991109 8.0000000000000000 46
0.9039259182416601  -7.9908228130588501 68.5646619100934629 1.1523109646470535 8.0000000000000018 47
0.9223635565707833  -8.0804347874653342 69.8029515222078487 1.1499994691098205 7.9999999999999982 48
0.9408048307689274  -8.1661318000501844 71.0015881344020698 1.1478345197546209 7.9999999999999991 49
0.9592502790222203  -8.2480801797958847 72.1609762602836327 1.1458056594786084 7.9999999999999982 50
0.9777003878144145  -8.3264391333774093 73.2816145964304440 1.1439031852833963 8.0000000000000018 51
0.9961555946904762  -8.4013611471154803 74.3640839145496528 1.1421180931042332 8.0000000000000000 52
1.0146162908664138  -8.4729923560395033 75.4090360650280616 1.1404420262935493 8.0000000000000018 53
1.0330828237103336  -8.5414728822189296 76.4171839729174849 1.1388672276374567 7.9999999999999982 54
1.0515554991158791  -8.6069371445303489 77.3892925249652421 1.1373864947654710 8.0000000000000018 55
1.0700345837854088  -8.6695141420411819 78.3261702613083628 1.1359931387988138 8.0000000000000000 56
1.0885203074366492  -8.7293277131944365 79.2286617981513359 1.1346809460714398 8.0000000000000000 57
1.1070128649432149  -8.7864967729623444 80.0976409183708711 1.1334441427503701 8.0000000000000000 58
1.1255124184164056  -8.8411355300955510 80.9340042757906275 1.1322773621778122 8.0000000000000000 59
1.1440190992330950  -8.8933536865278366 81.7386656660687265 1.1311756147565868 8.0000000000000000 60
1.1625330100123517  -8.9432566209055580 82.5125508229758253 1.1301342602021185 7.9999999999999991 61
1.1810542265416724  -8.9909455580994759 83.2565927035169295 1.1291489819882936 7.9999999999999991 62
1.1995827996523243  -9.0365177264284231 83.9717272290673264 1.1282157638203545 8.0000000000000000 63
1.2181187570423080  -9.0800665041842592 84.6588894526269655 1.1273308679753060 8.0000000000000000 64
1.2366621050447510  -9.1216815569000556 85.3190101246067627 1.1264908153586335 8.0000000000000000 65
1.2552128303391648  -9.1614489666528804 85.9530126313818812 1.1256923671351484 7.9999999999999991 66
1.2737709016028362  -9.1994513545430436 86.5618102822982394 1.1249325078011891 7.9999999999999991 67
1.2923362710996702  -9.2357679973458904 87.1463039219983386 1.1242084295749382 7.9999999999999991 68
1.3109088762040051  -9.2704749391934804 87.7073798459199310 1.1235175179910850 8.0000000000000018 69
1.3294886408572359  -9.3036450990133517 88.2459079976817833 1.1228573385953140 7.9999999999999982 70
1.3480754769554910  -9.3353483743316801 88.7627404278538990 1.1222256246429627 8.0000000000000018 71
1.3666692856670573  -9.3656517419392156 89.2587099943515909 1.1216202657146233 8.0000000000000000 72
1.3852699586787385  -9.3946193558213267 89.7346292854242762 1.1210392971694123 8.0000000000000018 73
1.4038773793708266  -9.4223126426674941 90.1912897469423456 1.1204808903639618 8.0000000000000000 74
1.4224914239208346  -9.4487903952016232 90.6294609964379418 1.1199433435720527 8.0000000000000000 75
1.4411119623366180  -9.4741088635107218 91.0498903071252812 1.1194250735460187 7.9999999999999982 76
1.4597388594199121  -9.4983218444964219 91.4533022459222309 1.1189246076667856 8.0000000000000000 77
1.4783719756617211  -9.5214807695297452 91.8403984503067932 1.1184405766345602 7.9999999999999982 78
1.4970111680713123  -9.5436347903541030 92.2118575296746741 1.1179717076568729 8.0000000000000000 79
1.5156562909408775  -9.5648308632535937 92.5683350777028977 1.1175168180948694 7.9999999999999991 80
1.5343071965481563  -9.5851138314825910 92.9104637830707532 1.1170748095325271 8.0000000000000018 81
1.5529637357995270  -9.6045265059369527 93.2388536267299060 1.1166446622368311 7.9999999999999982 82
1.5716257588162093  -9.6231097440370608 93.5540921547509328 1.1162254299799697 8.0000000000000000 83
1.5902931154663524  -9.6409025267861548 93.8567448165885594 1.1158162351972662 7.9999999999999991 84
1.6089656558458374  -9.6579420339650106 94.1473553594085359 1.1154162644569834 8.0000000000000000 85
1.6276432307106845  -9.6742637174234698 94.4264462698887712 1.1150247642202209 8.0000000000000000 86
1.6463256918639371  -9.6899013724317609 94.6945192556513291 1.1146410368710538 8.0000000000000000 87
1.6650128924999044  -9.7048872070581353 94.9520557591912109 1.1142644369987047 8.0000000000000000 88
1.6837046875085757  -9.7192519095444876 95.1995174978433027 1.1138943679150728 8.0000000000000000 89
1.7024009337429795  -9.7330247136574712 95.4373470239664101 1.1135302783922545 8.0000000000000018 90
1.7211014902521657  -9.7462334619990578 95.6659683001229126 1.1131716596058978 8.0000000000000000 91
1.7398062184824088  -9.7589046672673607 95.8857872845954091 1.1128180422713072 7.9999999999999991 92
1.7585149824491235  -9.7710635714650493 96.0971925231016399 1.1124689939601591 8.0000000000000018 93
1.7772276488818739  -9.7827342030597233 96.3005557430570462 1.1121241165865756 7.9999999999999991 94
1.7959440873447419  -9.7939394321068214 96.4962324471792101 1.1117830440520839 8.0000000000000018 95
1.8146641703342123  -9.8047010233517611 96.6845625036398530 1.1114454400396767 7.9999999999999982 96
1.8333877733565873  -9.8150396873338899 96.8658707303483482 1.1111109959478798 7.9999999999999991 97
1.8521147749868556  -9.8249751295197214 97.0404674712907251 1.1107794289562718 8.0000000000000000 98
1.8708450569107902  -9.8345260974979141 97.2086491631626188 1.1104504802144919 8.0000000000000000 99
1.8895785039519548  -9.8437104262725512 97.3706988908147650 1.1101239131472342 8.0000000000000000 100
1.9083150040851677  -9.8525450816948936 97.5268869302837800 1.1097995118682058 8.0000000000000000 101
1.9270544484378760  -9.8610462020769987 97.6774712784090013 1.1094770796964430 7.9999999999999982 102
1.9457967312807691  -9.8692291380333188 97.8226981682398531 1.1091564377687884 8.0000000000000000 103
1.9645417500088767  -9.8771084905984559 97.9628025696182192 1.1088374237426755 8.0000000000000018 104
1.9832894051142811  -9.8846981476711875 98.0980086744829123 1.1085198905837441 8.0000000000000000 105
2.0020396001514946  -9.8920113188360084 98.2285303665820777 1.1082037054331013 7.9999999999999982 106
2.0207922416964612  -9.8990605686146029 98.3545716754059640 1.1078887485493649 7.9999999999999991 107
2.0395472393000493  -9.9058578482001156 98.4763272142590722 1.1075749123208962 8.0000000000000018 108
2.0583045054368490  -9.9124145257274598 98.5939826024860082 1.1072621003439078 8.0000000000000000 109
2.0770639554499839  -9.9187414151329172 98.7077148719451998 1.1069502265623736 8.0000000000000000 110
2.0958255074926075  -9.9248488036559763 98.8176928578949969 1.1066392144659025 8.0000000000000000 111
2.1145890824666749  -9.9307464780359567 98.9240775745146124 1.1063289963419733 8.0000000000000018 112
2.1333546039595284  -9.9364437494552593 99.0270225753320688 1.1060195125791239 7.9999999999999991 113
2.1521219981787807  -9.9419494772803265 99.1266742988730556 1.1057107110178996 8.0000000000000018 114
2.1708911938859292  -9.9472720916502464 99.2231723998757218 1.1054025463465371 8.0000000000000000 115
2.1896621223290884  -9.9524196149620856 99.3166500664466980 1.1050949795385596 8.0000000000000000 116
2.2084347171751890  -9.9573996823006112 99.4072343235510232 1.1047879773296050 8.0000000000000018 117
2.2272089144419480  -9.9622195608589390 99.4950463232474647 1.1044815117309783 8.0000000000000000 118
2.2459846524298821  -9.9668861683952219 99.5802016220901578 1.1041755595775755 7.9999999999999982 119
2.2647618716546010  -9.9714060907690971 99.6628104461250643 1.1038701021079453 8.0000000000000000 120
2.2835405147795989  -9.9757855986002379 99.7429779439148660 1.1035651245744154 8.0000000000000000 121
2.3023205265497140  -9.9800306630899041 99.8208044280253119 1.1032606158813183 7.9999999999999991 122
2.3211018537254251  -9.9841469710448081 99.8963856054060386 1.1029565682494757 8.0000000000000000 123
2.3398844450181153  -9.9881399391413019 99.9698127970930415 1.1026529769052140 8.0000000000000018 124
2.3586682510264234  -9.9920147274663655 100.0411731476574175 1.1023498397922900 8.0000000000000000 125
2.3774532241737742  -9.9957762523704012 100.1105498248153367 1.1020471573052015 8.0000000000000018 126
2.3962393186471802  -9.9994291986654176 100.1780222096065813 1.1017449320424588 8.0000000000000000 127
2.4150264903373655  -10.0029780312009056 100.2436660775412349 1.1014431685784749 8.0000000000000000 128
2.4338146967802889  -10.0064270058480922 100.3075537711008280 1.1011418732528191 8.0000000000000000 129
2.4526038971000803  -10.0097801799221706 100.3697543639729588 1.1008410539756621 8.0000000000000000 130
2.4713940519534492  -10.0130414220706303 100.4303338173842519 1.1005407200483035 7.9999999999999991 131
2.4901851234755656  -10.0162144216545954 100.4893551288860323 1.1002408819977560 8.0000000000000000 132
2.5089770752274441  -10.0193026976488184 100.5468784739357631 1.0999415514244126 8.0000000000000018 133
2.5277698721448254  -10.0223096070848605 100.6029613406039971 1.0996427408619005 7.9999999999999982 134
2.5465634804885640  -10.0252383530607556 100.6576586577255199 1.0993444636482692 7.9999999999999991 135
2.5653578677965116  -10.0280919923393288 100.7110229168008004 1.0990467338077221 8.0000000000000018 136
2.5841530028368873  -10.0308734425563646 100.7631042879418999 1.0987495659421489 8.0000000000000000 137
2.6029488555631231  -10.0335854890587424 100.8139507301461606 1.0984529751317749 8.0000000000000000 138
2.6217453970701583  -10.0362307913916311 100.8636080961674963 1.0981569768442654 8.0000000000000000 139
2.6405425995521736  -10.0388118894529370 100.9121202322458970 1.0978615868516959 7.9999999999999991 140
2.6593404362617261  -10.0413312093323110 100.9595290729431269 1.0975668211548104 8.0000000000000000 141
2.6781388814702725  -10.0437910688510534 101.0058747313222227 1.0972726959140480 8.0000000000000000 142
2.6969379104300391  -10.0461936828185898 101.0511955846984904 1.0969792273868433 8.0000000000000000 143
2.7157374993372252  -10.0485411680202201 101.0955283561782068 1.0966864318707383 8.0000000000000000 144
2.7345376252964866  -10.0508355479502072 101.1389081921930710 1.0963943256518793 8.0000000000000000 145
2.7533382662866908  -10.0530787573035401 101.1813687362271565 1.0961029249585001 8.0000000000000000 146
2.7721394011278910  -10.0552726462389312 101.2229421989250824 1.0958122459190116 7.9999999999999982 147
2.7909410094495000  -10.0574189844251158 101.2636594247616415 1.0955223045243616 8.0000000000000000 148
2.8097430716596210  -10.0595194648816744 101.3035499554422358 1.0952331165943252 8.0000000000000000 149
2.8285455689155068  -10.0615757076252663 101.3426420901990923 1.0949446977474384 8.0000000000000000 150
2.8473484830951108  -10.0635892631313713 101.3809629431366943 1.0946570633742854 7.9999999999999982 151
2.8661517967696981  -10.0655616156212595 101.4185384977748186 1.0943702286138781 8.0000000000000018 152
2.8849554931774817  -10.0674941861832679 101.4553936589287702 1.0940842083328852 8.0000000000000000 153
2.9037595561982501  -10.0693883357371785 101.4915523020615638 1.0937990171074865 8.0000000000000018 154
2.9225639703289574  -10.0712453678497553 101.5270373202330916 1.0935146692076365 7.9999999999999982 155
2.9413687206602401  -10.0730665314093404 101.5618706687685489 1.0932311785835442 7.9999999999999991 156
2.9601737928538281  -10.0748530231667957 101.5960734077597039 1.0929485588541850 8.0000000000000000 157
2.9789791731208246  -10.0766059901498206 101.6296657425079957 1.0926668232976764 8.0000000000000000 158
2.9977848482008169  -10.0783265319572095 101.6626670620134263 1.0923859848433628 8.0000000000000000 159
3.0165908053417954  -10.0800157029393240 101.6950959756066482 1.0921060560654534 7.9999999999999991 160
3.0353970322808470  -10.0816745142706914 101.7269703478180816 1.0918270491780910 8.0000000000000000 161
3.0542035172255981  -10.0833039359203234 101.7583073315723254 1.0915489760317150 7.9999999999999991 162
3.0730102488363769  -10.0849048985251173 101.7891233997920892 1.0912718481106092 8.0000000000000000 163
3.0918172162090674  -10.0864782951712542 101.8194343754909710 1.0909956765315179 8.0000000000000018 164
3.1106244088586377  -10.0880249830884878 101.8492554604316069 1.0907204720432422 8.0000000000000000 165
3.1294318167033048  -10.0895457852617270 101.8786012624202613 1.0904462450271124 8.0000000000000000 166
3.1482394300493191  -10.0910414919641909 101.9074858213065795 1.0901730054982561 7.9999999999999982 167
3.1670472395763469  -10.0925128622162408 101.9359226337527389 1.0899007631075837 8.0000000000000000 168
3.1858552363234196  -10.0939606251735885 101.9639246768339831 1.0896295271444112 8.0000000000000000 169
3.2046634116754387  -10.0953854814486448 101.9915044305282947 1.0893593065396638 8.0000000000000000 170
3.2234717573502012  -10.0967881043683061 102.0186738991508548 1.0890901098695880 8.0000000000000000 171
3.2422802653859408  -10.0981691411715140 102.0454446317853865 1.0888219453599164 8.0000000000000000 172
3.2610889281293520  -10.0995292141495945 102.0718277417624620 1.0885548208904372 8.0000000000000000 173
3.2798977382240846  -10.1008689217323475 102.0978339252318676 1.0882887439999145 8.0000000000000000 174
3.2987066885996854  -10.1021888395225670 102.1234734788735921 1.0880237218913129 8.0000000000000018 175
3.3175157724609772  -10.1034895212816913 102.1487563167905535 1.0877597614372934 8.0000000000000000 176
3.3363249832778457  -10.1047714998689759 102.1736919866226856 1.0874968691859328 8.0000000000000000 177
3.3551343147754329  -10.1060352881365709 102.1982896849209226 1.0872350513666360 7.9999999999999982 178
3.3739437609247052  -10.1072813797827106 102.2225582718177748 1.0869743138962140 8.0000000000000000 179
3.3927533159333927  -10.1085102501650965 102.2465062850280049 1.0867146623850852 8.0000000000000000 180
3.4115629742372797  -10.1097223570765316 102.2701419532133258 1.0864561021435915 8.0000000000000000 181
3.4303727304918343  -10.1109181414845857 102.2934732087410055 1.0861986381883868 8.0000000000000000 182
3.4491825795641589  -10.1120980282371686 102.3165076998664631 1.0859422752488894 8.0000000000000000 183
3.4679925165252565  -10.1132624267356697 102.3392528023676391 1.0856870177737692 8.0000000000000000 184
3.4868025366425921  -10.1144117315772490 102.3617156306576135 1.0854328699374562 7.9999999999999991 185
3.5056126353729420  -10.1155463231678624 102.3839030484007537 1.0851798356466531 8.0000000000000000 186
3.5244228083555185  -10.1166665683073678 102.4058216786561104 1.0849279185468341 8.0000000000000018 187
3.5432330514053563  -10.1177728207481845 102.4274779135707263 1.0846771220287186 8.0000000000000018 188
3.5620433605069564  -10.1188654217287137 102.4488779236449147 1.0844274492347092 8.0000000000000000 189
3.5808537318081650  -10.1199447004828258 102.4700276665890613 1.0841789030652809 8.0000000000000000 190
3.5996641616142928  -10.1210109747264951 102.4909328957922128 1.0839314861853082 8.0000000000000000 191
3.6184746463824555  -10.1220645511227545 102.5115991684201617 1.0836852010303311 8.0000000000000018 192
3.6372851827161252  -10.1231057257260062 102.5320318531612713 1.0834400498127403 7.9999999999999991 193
3.6560957673598931  -10.1241347844066674 102.5522361376361005 1.0831960345278882 7.9999999999999991 194
3.6749063971944231  -10.1251520032570799 102.5722170354867728 1.0829531569601047 8.0000000000000000 195
