 # inv_tmp, energy, phys_var, phys_doublon, phys_num, step_i
0.0206452107985333  7.1252323109199240 87.7061966422279795 1.9515702758367515 7.9999999999999982 1
0.0409693961198260  6.3661469575746743 77.0316843583103150 1.9067056907222721 7.9999999999999982 2
0.0609896692028494  5.6226833425802401 67.5125335746626121 1.8627863926243080 8.0000000000000018 3
0.0807248314630801  4.8979039657848631 59.1249210763016890 1.8200015293720817 8.0000000000000000 4
0.1001948387261448  4.1944598430637594 51.8277971480893527 1.7785257797091365 8.0000000000000000 5
0.1194203016318873  3.5145730163204707 45.5659793471142294 1.7385163329891189 8.0000000000000036 6
0.1384220367554623  2.8600346581192557 40.2734626111659608 1.7001100568939553 8.0000000000000000 7
0.1572206765231985  2.2322150379556245 35.8767083998622454 1.6634211095522133 8.0000000000000000 8
0.1758363398029220  1.6320820816990174 32.2977241968465378 1.6285392105511360 8.0000000000000000 9
0.1942883613519521  1.0602260432361699 29.4568008613506507 1.5955287188518488 8.0000000000000000 10
0.2125950766434584  0.5168885971144124 27.2748296732165585 1.5644285857772653 7.9999999999999973 11
0.2307736581828332  0.0019952494503790 25.6751676286966486 1.5352531698142098 8.0000000000000000 12
0.2488399995166909  -0.4848097190904306 24.5850559910823812 1.5079938275673492 7.9999999999999982 13
0.2668086432059388  -0.9441264853925091 23.9366229945578368 1.4826211398087543 8.0000000000000000 14
0.2846927488473141  -1.3767618650854581 23.6675180251504855 1.4590875976100999 8.0000000000000000 15
0.3025040967888555  -1.7836913274455335 23.7212332408605135 1.4373305617031391 7.9999999999999982 16
0.3202531226354551  -2.1660218023924971 24.0471712341926320 1.4172753159557376 8.0000000000000036 17
0.3379489771593877  -2.5249562303638280 24.6005156340213063 1.3988380584749538 8.0000000000000000 18
0.3555996059616741  -2.8617607076189429 25.3419569046379429 1.3819287057093168 8.0000000000000018 19
0.3732118432491571  -3.1777349072384911 26.2373191909525652 1.3664534205282228 7.9999999999999982 20
0.3907915144044673  -3.4741862396996845 27.2571268040226329 1.3523168100518135 8.0000000000000000 21
0.4083435425830486  -3.7524079887985753 28.3761415448168819 1.3394237697662477 7.9999999999999964 22
0.4258720552948080  -4.0136614461747353 29.5728950327800035 1.3276809753506642 8.0000000000000018 23
0.4433804877320854  -4.2591618894248846 30.8292338712765073 1.3169980420293144 7.9999999999999982 24
0.4608716804137087  -4.4900681142237167 32.1298900289715235 1.3072883834070996 8.0000000000000018 25
0.4783479694679225  -4.7074751416647747 33.4620843118899458 1.2984698084742787 8.0000000000000000 26
0.4958112685365359  -4.9124096743291155 34.8151672258685920 1.2904648978730446 8.0000000000000018 27
0.5132631418293622  -5.1058278613303960 36.1802988061176123 1.2832011997511039 8.0000000000000000 28
0.5307048682878198  -5.2886149454814646 37.5501670093789599 1.2766112826372145 7.9999999999999982 29
0.5481374971360613  -5.4615863966454983 38.9187429010036041 1.2706326786406001 8.0000000000000000 30
0.5655618953202926  -5.6254901771410299 40.2810700011478744 1.2652077455821304 8.0000000000000018 31
0.5829787874781596  -5.7810098320218355 41.6330846679322377 1.2602834719005584 7.9999999999999964 32
0.6003887891568264  -5.9287681448699914 42.9714641922507496 1.2558112436664912 8.0000000000000000 33
0.6177924340261659  -6.0693311454829715 44.2934992770066032 1.2517465889718986 7.9999999999999964 34
0.6351901958258347  -6.2032122976809454 45.5969877073166643 1.2480489114360442 8.0000000000000018 35
0.6525825057530992  -6.3308767324522606 46.8801462370491038 1.2446812216022385 7.9999999999999991 36
0.6699697659509407  -6.4527454234684622 48.1415379831766259 1.2416098725711053 8.0000000000000000 37
0.6873523596999230  -6.5691992287322165 49.3800129056464314 1.2388043042757388 8.0000000000000036 38
0.7047306588574417  -6.6805827441352070 50.5946592380043612 1.2362367992901182 7.9999999999999982 39
0.7221050290277409  -6.7872079324996175 51.7847640105016893 1.2338822519083594 7.9999999999999982 40
0.7394758328877488  -6.8893575058151626 52.9497810653028154 1.2317179513751197 8.0000000000000036 41
0.7568434320387826  -6.9872880494200142 54.0893051985981330 1.2297233795285201 8.0000000000000018 42
0.7742081877033000  -7.0812328853305777 55.2030512752145555 1.2278800226853097 7.9999999999999982 43
0.7915704605395021  -7.1714046782680487 56.2908373476396378 1.2261711973103582 7.9999999999999982 44
0.8089306098047816  -7.2579977925666768 57.3525709742002334 1.2245818888333062 8.0000000000000018 45
0.8262889920616602  -7.3411904114228816 58.3882380720350511 1.2230986028752768 8.0000000000000018 46
0.8436459595867379  -7.4211464321433276 59.3978937613749025 1.2217092281052155 8.0000000000000000 47
0.8610018586140026  -7.4980171524088854 60.3816547605159570 1.2204029099409295 8.0000000000000000 48
0.8783570275183250  -7.5719427632807905 61.3396929777506230 1.2191699343307953 7.9999999999999956 49
0.8957117950227583  -7.6430536648891483 62.2722300193412721 1.2180016208885107 8.0000000000000000 50
0.9130664784941031  -7.7114716205833869 63.1795323931807218 1.2168902246978646 8.0000000000000000 51
0.9304213823747558  -7.7773107648882629 64.0619072377314467 1.2158288461524764 7.9999999999999964 52
0.9477767967849190  -7.8406784799721301 64.9196984466544222 1.2148113482432177 8.0000000000000000 53
0.9651329963174977  -7.9016761545591976 65.7532830925696317 1.2138322807517192 8.0000000000000036 54
0.9824902390382599  -7.9603998383503498 66.5630680798071950 1.2128868108506150 7.9999999999999982 55
0.9998487656958445  -8.0169408040961407 67.3494869768535978 1.2119706596495363 7.9999999999999964 56
1.0172087991397702  -8.0713860285195604 68.1129969953890537 1.2110800442602061 8.0000000000000000 57
1.0345705439395427  -8.1238186023385452 68.8540760951420339 1.2102116249845307 7.9999999999999973 58
1.0519341861940876  -8.1743180787056886 69.5732202029451230 1.2093624572566684 8.0000000000000018 59
1.0692998935179163  -8.2229607684790960 70.2709405409586623 1.2085299479940528 7.9999999999999964 60
1.0866678151884748  -8.2698199898742537 70.9477610635481426 1.2077118160339366 8.0000000000000000 61
1.1040380824379332  -8.3149662792279919 71.6042160051819252 1.2069060563513172 8.0000000000000036 62
1.1214108088720889  -8.3584675688389005 72.2408475433345671 1.2061109077718748 8.0000000000000000 63
1.1387860909989838  -8.4003893371351630 72.8582035810367188 1.2053248239098584 8.0000000000000018 64
1.1561640088501768  -8.4407947357633439 73.4568356536564977 1.2045464470761391 8.0000000000000018 65
1.1735446266782612  -8.4797446975905331 74.0372969639486769 1.2037745849161492 8.0000000000000018 66
1.1909279937151129  -8.5172980290651559 74.6001405485160660 1.2030081895512015 8.0000000000000000 67
1.2083141449764221  -8.5535114898897096 75.1459175777442852 1.2022463390100202 7.9999999999999973 68
1.2257031020992382  -8.5884398625165073 75.6751757900873656 1.2014882207501576 8.0000000000000000 69
1.2430948742005077  -8.6221360135850809 76.1884580603791193 1.2007331170814672 7.9999999999999991 70
1.2604894587458566  -8.6546509490726553 76.6863011006921056 1.1999803923159440 8.0000000000000000 71
1.2778868424191308  -8.6860338646243243 77.1692342911860152 1.1992294814800015 8.0000000000000036 72
1.2952870019844414  -8.7163321922639891 77.6377786374257397 1.1984798804366938 7.9999999999999982 73
1.3126899051336496  -8.7455916444574271 78.0924458498120373 1.1977311372764339 8.0000000000000018 74
1.3300955113133239  -8.7738562563010163 78.5337375400638962 1.1969828448453690 8.0000000000000018 75
1.3475037725262562  -8.8011684264418424 78.9621445291284090 1.1962346342908443 7.9999999999999947 76
1.3649146341035570  -8.8275689571923266 79.3781462604576689 1.1954861695131074 8.0000000000000018 77
1.3823280354442362  -8.8530970941832745 79.7822103122808528 1.1947371424217130 7.9999999999999991 78
1.3997439107199343  -8.8777905658010070 80.1747920023116620 1.1939872689039528 8.0000000000000018 79
1.4171621895431743  -8.9016856225725220 80.5563340782281330 1.1932362854208771 8.0000000000000000 80
1.4345827975981085  -8.9248170765975789 80.9272664872698613 1.1924839461543815 7.9999999999999982 81
1.4520056572332614  -8.9472183410741195 81.2880062183688779 1.1917300206360815 8.0000000000000018 82
1.4694306880162304  -8.9689214699226962 81.6389572103743717 1.1909742917955701 8.0000000000000000 83
1.4868578072506846  -8.9899571974841610 81.9805103201303353 1.1902165543719736 7.9999999999999982 84
1.5042869304563296  -9.0103549782421126 82.3130433444030132 1.1894566136385527 7.9999999999999991 85
1.5217179718127682  -9.0301430265047991 82.6369210899334945 1.1886942843955282 8.0000000000000036 86
1.5391508445684012  -9.0493483559708849 82.9524954861869617 1.1879293901912364 8.0000000000000018 87
1.5565854614156738  -9.0679968190969831 83.2601057356901464 1.1871617627362507 7.9999999999999964 88
1.5740217348341075  -9.0861131461822886 83.5600784971724693 1.1863912414792321 8.0000000000000000 89
1.5914595774026423  -9.1037209840860847 83.8527280970599520 1.1856176733170092 8.0000000000000000 90
1.6088989020828701  -9.1208429344963715 84.1383567652000579 1.1848409124147965 7.9999999999999982 91
1.6263396224747786  -9.1375005916720760 84.4172548910224094 1.1840608201154921 7.9999999999999991 92
1.6437816530466347  -9.1537145795866284 84.6897012966571197 1.1832772649197560 8.0000000000000000 93
1.6612249093406217  -9.1695045884073139 84.9559635238398698 1.1824901225210507 7.9999999999999991 94
1.6786693081558270  -9.1848894102510812 85.2162981317270862 1.1816992758819922 7.9999999999999973 95
1.6961147677101385  -9.1998869741651284 85.4709510030235009 1.1809046153403546 8.0000000000000000 96
1.7135612077825533  -9.2145143802871026 85.7201576560892846 1.1801060387347877 7.9999999999999991 97
1.7310085498373633  -9.2287879331475011 85.9641435609426026 1.1793034515418670 8.0000000000000018 98
1.7484567171316026  -9.2427231740829914 86.2031244573046536 1.1784967670174322 7.9999999999999982 99
1.7659056348070890  -9.2563349127363779 86.4373066730503581 1.1776859063363947 8.0000000000000000 100
1.7833552299683235  -9.2696372576247654 86.6668874416272814 1.1768707987261990 7.9999999999999982 101
1.8008054317474331  -9.2826436457636401 86.8920552171894087 1.1760513815900866 7.9999999999999991 102
1.8182561713572840  -9.2953668713391480 87.1129899863598780 1.1752276006170583 8.0000000000000036 103
1.8357073821338161  -9.3078191134264348 87.3298635756925847 1.1743994098761485 8.0000000000000036 104
1.8531589995685780  -9.3200119627558990 87.5428399540395077 1.1735667718932130 8.0000000000000036 105
1.8706109613323880  -9.3319564475329706 87.7520755291596117 1.1727296577089183 7.9999999999999991 106
1.8880632072909658  -9.3436630583209439 87.9577194380193248 1.1718880469170960 8.0000000000000000 107
1.9055156795133252  -9.3551417719990013 88.1599138303347445 1.1710419276829429 8.0000000000000000 108
1.9229683222736642  -9.3664020748105052 88.3587941450015677 1.1701912967409134 8.0000000000000000 109
1.9404210820474159  -9.3774529845187971 88.5544893791363421 1.1693361593723588 8.0000000000000036 110
1.9578739075020890  -9.3883030716895721 88.7471223495279986 1.1684765293632178 8.0000000000000036 111
1.9753267494834572  -9.3989604801207740 88.9368099463624162 1.1676124289422276 7.9999999999999982 112
1.9927795609976233  -9.4094329464419513 89.1236633791368718 1.1667438887002708 8.0000000000000036 113
2.0102322971894342  -9.4197278189061144 89.3077884147328547 1.1658709474915638 7.9999999999999982 114
2.0276849153176713  -9.4298520753983190 89.4892856076579335 1.1649936523175421 8.0000000000000036 115
2.0451373747274242  -9.4398123406849130 89.6682505225013244 1.1641120581942777 8.0000000000000018 116
2.0625896368199927  -9.4496149029288272 89.8447739486856136 1.1632262280043986 8.0000000000000000 117
2.0800416650206475  -9.4592657294955416 90.0189421076154588 1.1623362323344510 8.0000000000000036 118
2.0974934247445436  -9.4687704820749730 90.1908368523539110 1.1614421492986926 8.0000000000000000 119
2.1149448833610465  -9.4781345311442546 90.3605358599718613 1.1605440643503213 8.0000000000000000 120
2.1323960101567137  -9.4873629697961146 90.5281128167318201 1.1596420700811090 8.0000000000000000 121
2.1498467762971436  -9.4964606269573686 90.6936375962805101 1.1587362660104479 8.0000000000000000 122
2.1672971547878834  -9.5054320800215422 90.8571764310324141 1.1578267583647568 8.0000000000000000 123
2.1847471204345652  -9.5142816669192403 91.0187920769359096 1.1569136598482133 8.0000000000000018 124
2.2021966498024361  -9.5230134976492842 91.1785439718169641 1.1559970894057259 8.0000000000000018 125
2.2196457211753970  -9.5316314652931400 91.3364883874989602 1.1550771719790496 7.9999999999999982 126
2.2370943145146951  -9.5401392565344576 91.4926785758992480 1.1541540382569129 8.0000000000000018 127
2.2545424114173644  -9.5485403617048501 91.6471649093030010 1.1532278244199892 8.0000000000000053 128
2.2719899950745117  -9.5568380843766398 91.7999950150150994 1.1522986718815273 8.0000000000000036 129
2.2894370502295365  -9.5650355505221896 91.9512139045873056 1.1513667270244072 8.0000000000000018 130
2.3068835631363602  -9.5731357172590634 92.1008640978158724 1.1504321409353513 8.0000000000000000 131
2.3243295215177211  -9.5811413811994743 92.2489857417030663 1.1494950691370140 8.0000000000000000 132
2.3417749145236084  -9.5890551864216622 92.3956167245688675 1.1485556713186047 8.0000000000000036 133
2.3592197326898732  -9.5968796320802188 92.5407927854977572 1.1476141110656828 8.0000000000000018 134
2.3766639678970676  -9.6046170796718933 92.6845476192994795 1.1466705555897443 7.9999999999999982 135
2.3941076133295494  -9.6122697599722038 92.8269129771562120 1.1457251754581537 8.0000000000000018 136
2.4115506634348871  -9.6198397796580828 92.9679187631254820 1.1447781443249658 7.9999999999999982 137
2.4289931138835938  -9.6273291276308264 93.1075931266628345 1.1438296386631681 7.9999999999999982 138
2.4464349615292229  -9.6347396810529311 93.2459625513188826 1.1428798374987907 7.9999999999999973 139
2.4638762043688351  -9.6420732111120326 93.3830519397648970 1.1419289221473679 7.9999999999999991 140
2.4813168415038724  -9.6493313885242902 93.5188846952920869 1.1409770759531506 8.0000000000000018 141
2.4987568731014465  -9.6565157887891697 93.6534827999255128 1.1400244840314882 7.9999999999999982 142
2.5161963003560603  -9.6636278972069487 93.7868668892867845 1.1390713330147346 7.9999999999999982 143
2.5336351254517782  -9.6706691136696588 93.9190563243367507 1.1381178108020289 8.0000000000000000 144
2.5510733515248556  -9.6776407572357819 94.0500692601202246 1.1371641063132796 8.0000000000000036 145
2.5685109826268362  -9.6845440704984966 94.1799227116339637 1.1362104092476393 7.9999999999999973 146
2.5859480236881347  -9.6913802237567275 94.3086326169309217 1.1352569098467602 7.9999999999999964 147
2.6033844804821031  -9.6981503189977296 94.4362138975694307 1.1343037986630662 7.9999999999999982 148
2.6208203595896009  -9.7048553936998392 94.5626805165128417 1.1333512663332923 8.0000000000000000 149
2.6382556683640650  -9.7114964244631441 94.6880455335781051 1.1323995033574947 7.9999999999999982 150
2.6556904148970957  -9.7180743304757868 94.8123211585303522 1.1314486998837321 8.0000000000000000 151
2.6731246079845601  -9.7245899768230686 94.9355188019128775 1.1304990454985833 8.0000000000000000 152
2.6905582570932220  -9.7310441776461918 95.0576491237006138 1.1295507290236715 8.0000000000000000 153
2.7079913723279025  -9.7374376991572014 95.1787220798607621 1.1286039383183271 7.9999999999999982 154
2.7254239643991753  -9.7437712625162476 95.2987469668989888 1.1276588600885133 8.0000000000000036 155
2.7428560445916106  -9.7500455465770948 95.4177324644682301 1.1267156797021212 8.0000000000000018 156
2.7602876247325621  -9.7562611905064571 95.5356866761124337 1.1257745810107358 7.9999999999999964 157
2.7777187171615059  -9.7624187962825566 95.6526171682150022 1.1248357461779368 8.0000000000000018 158
2.7951493346999463  -9.7685189310776739 95.7685310072172911 1.1238993555141978 7.9999999999999982 159
2.8125794906218715  -9.7745621295300129 95.8834347951730450 1.1229655873184536 8.0000000000000000 160
2.8300091986247899  -9.7805488959089306 95.9973347036974332 1.1220346177263376 7.9999999999999947 161
2.8474384728013318  -9.7864797061782802 96.1102365063702564 1.1211066205651450 7.9999999999999982 162
2.8648673276114267  -9.7923550099617920 96.2221456096485497 1.1201817672155079 7.9999999999999991 163
2.8822957778550702  -9.7981752324145930 96.3330670823429500 1.1192602264797979 7.9999999999999973 164
2.8997238386456630  -9.8039407760046764 96.4430056837090603 1.1183421644572387 8.0000000000000036 165
2.9171515253839528  -9.8096520222076755 96.5519658902017284 1.1174277444256950 8.0000000000000000 166
2.9345788537325559  -9.8153093331187922 96.6599519209430866 1.1165171267301308 8.0000000000000107 167
2.9520058395910835  -9.8209130529847695 96.7669677619452386 1.1156104686776587 8.0000000000000018 168
2.9694324990718615  -9.8264635096594137 96.8730171891364762 1.1147079244391638 7.9999999999999982 169
2.9868588484762553  -9.8319610159853585 96.9781037902297385 1.1138096449574113 7.9999999999999982 170
3.0042849042715942  -9.8374058711052399 97.0822309854749506 1.1129157778615806 8.0000000000000000 171
3.0217106830687053  -9.8427983617048405 97.1854020473362112 1.1120264673881524 7.9999999999999947 172
3.0391362016000514  -9.8481387631910415 97.2876201191291301 1.1111418543080549 7.9999999999999938 173
3.0565614766984819  -9.8534273408068813 97.3888882326574929 1.1102620758599733 8.0000000000000036 174
3.0739865252765886  -9.8586643506864409 97.4892093248820828 1.1093872656897275 7.9999999999999982 175
3.0914113643066727  -9.8638500408517906 97.5885862536597557 1.1085175537956238 8.0000000000000000 176
3.1088360108013244  -9.8689846521541149 97.6870218125812215 1.1076530664796382 8.0000000000000018 177
3.1262604817946080  -9.8740684191615085 97.7845187449439521 1.1067939263043398 7.9999999999999982 178
3.1436847943238604  -9.8791015709951910 97.8810797568888518 1.1059402520554240 7.9999999999999982 179
3.1611089654120907  -9.8840843321164744 97.9767075297327494 1.1050921587097184 7.9999999999999982 180
3.1785330120509920  -9.8890169230661940 98.0714047315243249 1.1042497574085413 7.9999999999999982 181
3.1959569511845514  -9.8938995611586193 98.1651740278531264 1.1034131554362707 8.0000000000000000 182
3.2133807996932613  -9.8987324611316456 98.2580180919406416 1.1025824562039799 8.0000000000000000 183
3.2308045743789311  -9.9035158357549093 98.3499396140374813 1.1017577592380077 7.9999999999999982 184
3.2482282919500896  -9.9082498963977432 98.4409413101556652 1.1009391601733036 7.9999999999999982 185
3.2656519690079753  -9.9129348535583386 98.5310259301604390 1.1001267507514103 7.9999999999999964 186
3.2830756220331145  -9.9175709173560023 98.6201962652466051 1.0993206188229272 8.0000000000000018 187
3.3004992673724791  -9.9221582979877052 98.7084551548239233 1.0985208483542979 8.0000000000000036 188
3.3179229212272139  -9.9266972061507648 98.7958054928348304 1.0977275194387841 7.9999999999999964 189
3.3353465996409364  -9.9311878534328493 98.8822502335283389 1.0969407083114522 7.9999999999999947 190
3.3527703184885960  -9.9356304526707788 98.9677923967108910 1.0961604873680246 8.0000000000000018 191
3.3701940934658898  -9.9400252182794713 99.0524350724980565 1.0953869251874375 8.0000000000000000 192
3.3876179400792203  -9.9443723665524484 99.1361814255870684 1.0946200865579587 7.9999999999999982 193
3.4050418736361983  -9.9486721159349578 99.2190346990716705 1.0938600325066892 7.9999999999999982 194
3.4224659092366765  -9.9529246872711639 99.3009982178183748 1.0931068203323098 8.0000000000000036 195
3.4398900617643022  -9.9571303040263928 99.3820753914253601 1.0923605036409050 8.0000000000000036 196
