 # inv_tmp, energy, phys_var, phys_doublon, phys_num, step_i
0.020702  7.391928 92.769578 1.956624 8.000000 1
0.041071  6.607354 81.113851 1.909258 8.000000 2
0.061127  5.843935 70.728405 1.863262 8.000000 3
0.080894  5.105201 61.589939 1.818893 8.000000 4
0.100395  4.393836 53.650413 1.776345 8.000000 5
0.119655  3.711715 46.842759 1.735752 8.000000 6
0.138696  3.059989 41.086656 1.697196 8.000000 7
0.157541  2.439191 36.293865 1.660715 8.000000 8
0.176210  1.849337 32.372797 1.626313 8.000000 9
0.194723  1.290035 29.232177 1.593962 8.000000 10
0.213097  0.760574 26.783783 1.563616 8.000000 11
0.231348  0.260001 24.944348 1.535210 8.000000 12
0.249489  -0.212807 23.636742 1.508670 8.000000 13
0.267535  -0.659094 22.790596 1.483914 8.000000 14
0.285496  -1.080183 22.342480 1.460855 8.000000 15
0.303382  -1.477434 22.235794 1.439401 8.000000 16
0.321203  -1.852223 22.420441 1.419461 8.000000 17
0.338964  -2.205914 22.852378 1.400946 8.000000 18
0.356674  -2.539844 23.493101 1.383766 8.000000 19
0.374338  -2.855309 24.309102 1.367833 8.000000 20
0.391961  -3.153550 25.271334 1.353065 8.000000 21
0.409547  -3.435747 26.354694 1.339381 8.000000 22
0.427100  -3.703014 27.537546 1.326704 8.000000 23
0.444624  -3.956397 28.801275 1.314963 8.000000 24
0.462121  -4.196869 30.129897 1.304088 8.000000 25
0.479593  -4.425334 31.509702 1.294018 8.000000 26
0.497042  -4.642628 32.928939 1.284691 8.000000 27
0.514472  -4.849520 34.377545 1.276053 8.000000 28
0.531882  -5.046716 35.846905 1.268052 8.000000 29
0.549275  -5.234862 37.329644 1.260640 8.000000 30
0.566652  -5.414552 38.819449 1.253773 8.000000 31
0.584014  -5.586327 40.310914 1.247409 8.000000 32
0.601363  -5.750679 41.799414 1.241510 8.000000 33
0.618699  -5.908061 43.280984 1.236040 8.000000 34
0.636023  -6.058885 44.752232 1.230968 8.000000 35
0.653337  -6.203527 46.210253 1.226262 8.000000 36
0.670640  -6.342330 47.652560 1.221894 8.000000 37
0.687935  -6.475612 49.077028 1.217838 8.000000 38
0.705221  -6.603660 50.481843 1.214069 8.000000 39
0.722499  -6.726741 51.865461 1.210565 8.000000 40
0.739771  -6.845098 53.226571 1.207304 8.000000 41
0.757037  -6.958957 54.564068 1.204268 8.000000 42
0.774297  -7.068527 55.877024 1.201437 8.000000 43
0.791552  -7.173999 57.164672 1.198794 8.000000 44
0.808803  -7.275555 58.426381 1.196325 8.000000 45
0.826050  -7.373359 59.661647 1.194014 8.000000 46
0.843295  -7.467569 60.870076 1.191847 8.000000 47
0.860536  -7.558329 62.051374 1.189813 8.000000 48
0.877776  -7.645777 63.205337 1.187899 8.000000 49
0.895014  -7.730041 64.331843 1.186095 8.000000 50
0.912252  -7.811243 65.430843 1.184390 8.000000 51
0.929488  -7.889499 66.502358 1.182775 8.000000 52
0.946725  -7.964916 67.546467 1.181243 8.000000 53
0.963962  -8.037600 68.563309 1.179784 8.000000 54
0.981200  -8.107649 69.553072 1.178393 8.000000 55
0.998439  -8.175158 70.515993 1.177062 8.000000 56
1.015679  -8.240218 71.452351 1.175785 8.000000 57
1.032921  -8.302916 72.362462 1.174558 8.000000 58
1.050165  -8.363335 73.246680 1.173374 8.000000 59
1.067411  -8.421557 74.105390 1.172230 8.000000 60
1.084660  -8.477659 74.939005 1.171121 8.000000 61
1.101912  -8.531715 75.747962 1.170044 8.000000 62
1.119166  -8.583799 76.532723 1.168996 8.000000 63
1.136424  -8.633981 77.293765 1.167973 8.000000 64
1.153686  -8.682328 78.031586 1.166973 8.000000 65
1.170951  -8.728907 78.746694 1.165994 8.000000 66
1.188219  -8.773781 79.439612 1.165033 8.000000 67
1.205492  -8.817012 80.110868 1.164089 8.000000 68
1.222768  -8.858659 80.761000 1.163159 8.000000 69
1.240049  -8.898781 81.390548 1.162243 8.000000 70
1.257333  -8.937433 82.000058 1.161340 8.000000 71
1.274622  -8.974670 82.590074 1.160447 8.000000 72
1.291915  -9.010546 83.161141 1.159565 8.000000 73
1.309212  -9.045109 83.713800 1.158692 8.000000 74
1.326513  -9.078411 84.248591 1.157828 8.000000 75
1.343819  -9.110499 84.766046 1.156972 8.000000 76
1.361128  -9.141418 85.266693 1.156123 8.000000 77
1.378442  -9.171214 85.751053 1.155282 8.000000 78
1.395761  -9.199930 86.219637 1.154448 8.000000 79
1.413083  -9.227607 86.672950 1.153620 8.000000 80
1.430409  -9.254285 87.111485 1.152799 8.000000 81
1.447740  -9.280004 87.535727 1.151985 8.000000 82
1.465075  -9.304800 87.946149 1.151176 8.000000 83
1.482413  -9.328710 88.343213 1.150373 8.000000 84
1.499756  -9.351768 88.727371 1.149577 8.000000 85
1.517103  -9.374007 89.099062 1.148786 8.000000 86
1.534453  -9.395461 89.458715 1.148002 8.000000 87
1.551807  -9.416159 89.806744 1.147223 8.000000 88
1.569165  -9.436132 90.143555 1.146451 8.000000 89
1.586526  -9.455408 90.469539 1.145685 8.000000 90
1.603891  -9.474014 90.785077 1.144924 8.000000 91
1.621260  -9.491978 91.090537 1.144170 8.000000 92
1.638632  -9.509324 91.386276 1.143423 8.000000 93
1.656007  -9.526076 91.672638 1.142681 8.000000 94
1.673386  -9.542259 91.949958 1.141946 8.000000 95
1.690768  -9.557894 92.218557 1.141218 8.000000 96
1.708152  -9.573004 92.478747 1.140496 8.000000 97
1.725540  -9.587608 92.730829 1.139780 8.000000 98
1.742931  -9.601726 92.975092 1.139071 8.000000 99
1.760325  -9.615378 93.211817 1.138369 8.000000 100
1.777722  -9.628582 93.441272 1.137673 8.000000 101
1.795121  -9.641355 93.663719 1.136984 8.000000 102
1.812523  -9.653714 93.879406 1.136302 8.000000 103
1.829928  -9.665674 94.088576 1.135627 8.000000 104
1.847335  -9.677252 94.291461 1.134958 8.000000 105
1.864745  -9.688461 94.488284 1.134296 8.000000 106
1.882157  -9.699317 94.679261 1.133641 8.000000 107
1.899572  -9.709832 94.864599 1.132993 8.000000 108
1.916989  -9.720019 95.044497 1.132352 8.000000 109
1.934408  -9.729891 95.219148 1.131717 8.000000 110
1.951829  -9.739460 95.388736 1.131090 8.000000 111
1.969253  -9.748737 95.553439 1.130469 8.000000 112
1.986678  -9.757733 95.713428 1.129855 8.000000 113
2.004106  -9.766459 95.868866 1.129248 8.000000 114
2.021535  -9.774924 96.019913 1.128647 8.000000 115
2.038966  -9.783138 96.166720 1.128053 8.000000 116
2.056400  -9.791110 96.309434 1.127466 8.000000 117
2.073835  -9.798850 96.448196 1.126885 8.000000 118
2.091271  -9.806365 96.583141 1.126311 8.000000 119
2.108710  -9.813664 96.714400 1.125743 8.000000 120
2.126150  -9.820754 96.842097 1.125182 8.000000 121
2.143592  -9.827644 96.966354 1.124627 8.000000 122
2.161035  -9.834339 97.087287 1.124078 8.000000 123
2.178480  -9.840848 97.205008 1.123536 8.000000 124
2.195926  -9.847176 97.319623 1.123000 8.000000 125
2.213374  -9.853330 97.431237 1.122470 8.000000 126
2.230823  -9.859316 97.539950 1.121946 8.000000 127
2.248274  -9.865140 97.645857 1.121428 8.000000 128
2.265726  -9.870808 97.749051 1.120916 8.000000 129
2.283179  -9.876325 97.849620 1.120410 8.000000 130
2.300633  -9.881695 97.947651 1.119909 8.000000 131
2.318089  -9.886925 98.043226 1.119414 8.000000 132
2.335546  -9.892018 98.136425 1.118925 8.000000 133
2.353004  -9.896980 98.227324 1.118441 8.000000 134
2.370463  -9.901815 98.315997 1.117963 8.000000 135
2.387923  -9.906527 98.402516 1.117490 8.000000 136
2.405384  -9.911120 98.486948 1.117023 8.000000 137
2.422846  -9.915598 98.569361 1.116560 8.000000 138
2.440310  -9.919964 98.649818 1.116103 8.000000 139
2.457774  -9.924224 98.728381 1.115651 8.000000 140
2.475239  -9.928379 98.805109 1.115203 8.000000 141
2.492705  -9.932434 98.880058 1.114761 8.000000 142
2.510173  -9.936392 98.953286 1.114323 8.000000 143
2.527640  -9.940255 99.024844 1.113890 8.000000 144
2.545109  -9.944027 99.094785 1.113462 8.000000 145
2.562579  -9.947711 99.163158 1.113038 8.000000 146
2.580049  -9.951309 99.230010 1.112619 8.000000 147
2.597521  -9.954825 99.295389 1.112204 8.000000 148
2.614993  -9.958260 99.359339 1.111794 8.000000 149
2.632465  -9.961617 99.421904 1.111388 8.000000 150
2.649939  -9.964900 99.483124 1.110986 8.000000 151
2.667413  -9.968109 99.543040 1.110588 8.000000 152
2.684888  -9.971248 99.601692 1.110194 8.000000 153
2.702363  -9.974318 99.659117 1.109804 8.000000 154
2.719839  -9.977321 99.715351 1.109418 8.000000 155
2.737316  -9.980261 99.770429 1.109035 8.000000 156
2.754793  -9.983137 99.824386 1.108657 8.000000 157
2.772271  -9.985954 99.877254 1.108282 8.000000 158
2.789750  -9.988711 99.929066 1.107911 8.000000 159
2.807229  -9.991412 99.979851 1.107543 8.000000 160
2.824709  -9.994057 100.029640 1.107179 8.000000 161
2.842189  -9.996649 100.078461 1.106818 8.000000 162
2.859669  -9.999188 100.126343 1.106461 8.000000 163
2.877151  -10.001677 100.173312 1.106107 8.000000 164
2.894632  -10.004117 100.219394 1.105756 8.000000 165
2.912114  -10.006509 100.264615 1.105408 8.000000 166
2.929597  -10.008855 100.308998 1.105063 8.000000 167
2.947080  -10.011157 100.352568 1.104722 8.000000 168
2.964563  -10.013414 100.395348 1.104383 8.000000 169
2.982047  -10.015630 100.437360 1.104047 8.000000 170
2.999532  -10.017804 100.478624 1.103715 8.000000 171
3.017016  -10.019938 100.519162 1.103385 8.000000 172
3.034501  -10.022033 100.558995 1.103057 8.000000 173
3.051987  -10.024091 100.598140 1.102733 8.000000 174
3.069472  -10.026112 100.636619 1.102411 8.000000 175
3.086958  -10.028098 100.674448 1.102092 8.000000 176
3.104445  -10.030048 100.711645 1.101775 8.000000 177
3.121932  -10.031965 100.748228 1.101461 8.000000 178
3.139419  -10.033850 100.784213 1.101149 8.000000 179
3.156906  -10.035702 100.819617 1.100840 8.000000 180
3.174394  -10.037524 100.854454 1.100533 8.000000 181
3.191882  -10.039315 100.888741 1.100228 8.000000 182
3.209370  -10.041077 100.922491 1.099926 8.000000 183
3.226858  -10.042811 100.955720 1.099626 8.000000 184
3.244347  -10.044517 100.988440 1.099328 8.000000 185
3.261836  -10.046196 101.020666 1.099033 8.000000 186
3.279325  -10.047849 101.052410 1.098739 8.000000 187
3.296815  -10.049476 101.083685 1.098448 8.000000 188
3.314304  -10.051078 101.114503 1.098158 8.000000 189
3.331794  -10.052656 101.144876 1.097871 8.000000 190
3.349284  -10.054211 101.174815 1.097586 8.000000 191
3.366775  -10.055742 101.204331 1.097302 8.000000 192
3.384265  -10.057251 101.233436 1.097021 8.000000 193
3.401756  -10.058739 101.262139 1.096741 8.000000 194
3.419247  -10.060205 101.290452 1.096463 8.000000 195
3.436738  -10.061650 101.318383 1.096188 8.000000 196
3.454229  -10.063076 101.345942 1.095913 8.000000 197
3.471721  -10.064482 101.373139 1.095641 8.000000 198
3.489212  -10.065868 101.399982 1.095370 8.000000 199
3.506704  -10.067236 101.426481 1.095101 8.000000 200
3.524196  -10.068586 101.452644 1.094834 8.000000 201
3.541687  -10.069918 101.478478 1.094568 8.000000 202
3.559180  -10.071233 101.503992 1.094304 8.000000 203
3.576672  -10.072531 101.529195 1.094042 8.000000 204
3.594164  -10.073812 101.554092 1.093781 8.000000 205
3.611657  -10.075078 101.578692 1.093521 8.000000 206
3.629149  -10.076327 101.603001 1.093264 8.000000 207
3.646642  -10.077562 101.627027 1.093007 8.000000 208
3.664135  -10.078781 101.650776 1.092752 8.000000 209
3.681627  -10.079986 101.674254 1.092499 8.000000 210
3.699120  -10.081177 101.697469 1.092247 8.000000 211
3.716613  -10.082354 101.720425 1.091996 8.000000 212
3.734106  -10.083518 101.743129 1.091747 8.000000 213
3.751600  -10.084668 101.765587 1.091499 8.000000 214
3.769093  -10.085805 101.787804 1.091252 8.000000 215
3.786586  -10.086930 101.809785 1.091007 8.000000 216
3.804080  -10.088042 101.831537 1.090763 8.000000 217
3.821573  -10.089143 101.853063 1.090521 8.000000 218
3.839067  -10.090231 101.874370 1.090279 8.000000 219
3.856560  -10.091308 101.895461 1.090039 8.000000 220
3.874054  -10.092374 101.916341 1.089800 8.000000 221
3.891548  -10.093429 101.937016 1.089563 8.000000 222
3.909041  -10.094473 101.957489 1.089326 8.000000 223
3.926535  -10.095506 101.977764 1.089091 8.000000 224
3.944029  -10.096530 101.997846 1.088857 8.000000 225
3.961523  -10.097543 102.017740 1.088624 8.000000 226
3.979017  -10.098546 102.037448 1.088392 8.000000 227
3.996510  -10.099539 102.056974 1.088162 8.000000 228
4.014004  -10.100524 102.076323 1.087932 8.000000 229
4.031498  -10.101498 102.095497 1.087704 8.000000 230
4.048992  -10.102464 102.114501 1.087477 8.000000 231
4.066486  -10.103421 102.133338 1.087250 8.000000 232
4.083980  -10.104369 102.152011 1.087025 8.000000 233
4.101474  -10.105309 102.170523 1.086801 8.000000 234
4.118968  -10.106240 102.188877 1.086578 8.000000 235
4.136462  -10.107163 102.207077 1.086356 8.000000 236
4.153957  -10.108079 102.225125 1.086135 8.000000 237
4.171451  -10.108986 102.243024 1.085916 8.000000 238
4.188945  -10.109885 102.260777 1.085697 8.000000 239
4.206439  -10.110777 102.278386 1.085479 8.000000 240
4.223933  -10.111662 102.295855 1.085262 8.000000 241
4.241427  -10.112539 102.313185 1.085046 8.000000 242
4.258921  -10.113409 102.330380 1.084831 8.000000 243
4.276415  -10.114272 102.347441 1.084617 8.000000 244
4.293909  -10.115128 102.364371 1.084404 8.000000 245
4.311403  -10.115977 102.381173 1.084192 8.000000 246
4.328897  -10.116820 102.397848 1.083981 8.000000 247
4.346391  -10.117656 102.414398 1.083771 8.000000 248
4.363885  -10.118486 102.430826 1.083562 8.000000 249
4.381379  -10.119309 102.447133 1.083353 8.000000 250
4.398874  -10.120126 102.463322 1.083146 8.000000 251
4.416368  -10.120937 102.479395 1.082939 8.000000 252
4.433861  -10.121742 102.495353 1.082734 8.000000 253
4.451355  -10.122542 102.511198 1.082529 8.000000 254
4.468849  -10.123335 102.526932 1.082325 8.000000 255
4.486343  -10.124122 102.542556 1.082122 8.000000 256
4.503837  -10.124904 102.558073 1.081920 8.000000 257
4.521331  -10.125681 102.573484 1.081719 8.000000 258
4.538825  -10.126452 102.588790 1.081519 8.000000 259
4.556319  -10.127217 102.603993 1.081319 8.000000 260
4.573813  -10.127978 102.619095 1.081121 8.000000 261
4.591307  -10.128733 102.634096 1.080923 8.000000 262
4.608800  -10.129483 102.648998 1.080726 8.000000 263
4.626294  -10.130228 102.663804 1.080530 8.000000 264
4.643788  -10.130968 102.678513 1.080335 8.000000 265
4.661282  -10.131702 102.693127 1.080140 8.000000 266
4.678775  -10.132433 102.707648 1.079947 8.000000 267
4.696269  -10.133158 102.722077 1.079754 8.000000 268
4.713763  -10.133878 102.736415 1.079562 8.000000 269
4.731256  -10.134594 102.750662 1.079371 8.000000 270
4.748750  -10.135306 102.764821 1.079181 8.000000 271
4.766243  -10.136013 102.778892 1.078991 8.000000 272
4.783737  -10.136715 102.792877 1.078803 8.000000 273
4.801230  -10.137413 102.806776 1.078615 8.000000 274
4.818724  -10.138106 102.820590 1.078428 8.000000 275
4.836217  -10.138795 102.834320 1.078241 8.000000 276
4.853711  -10.139480 102.847968 1.078056 8.000000 277
4.871204  -10.140161 102.861534 1.077871 8.000000 278
4.888697  -10.140838 102.875020 1.077687 8.000000 279
4.906191  -10.141510 102.888425 1.077504 8.000000 280
4.923684  -10.142178 102.901751 1.077322 8.000000 281
4.941177  -10.142843 102.914999 1.077140 8.000000 282
4.958670  -10.143503 102.928170 1.076959 8.000000 283
4.976164  -10.144159 102.941264 1.076779 8.000000 284
4.993657  -10.144812 102.954282 1.076600 8.000000 285
5.011150  -10.145461 102.967225 1.076422 8.000000 286
5.028643  -10.146105 102.980093 1.076244 8.000000 287
5.046136  -10.146746 102.992888 1.076067 8.000000 288
5.063629  -10.147384 103.005610 1.075891 8.000000 289
5.081122  -10.148017 103.018260 1.075715 8.000000 290
5.098615  -10.148647 103.030838 1.075541 8.000000 291
5.116108  -10.149274 103.043345 1.075367 8.000000 292
5.133601  -10.149896 103.055782 1.075193 8.000000 293
5.151094  -10.150515 103.068149 1.075021 8.000000 294
5.168587  -10.151131 103.080447 1.074849 8.000000 295
5.186079  -10.151743 103.092676 1.074678 8.000000 296
5.203572  -10.152352 103.104838 1.074508 8.000000 297
5.221065  -10.152957 103.116932 1.074338 8.000000 298
5.238558  -10.153559 103.128959 1.074170 8.000000 299
5.256050  -10.154157 103.140920 1.074002 8.000000 300
5.273543  -10.154752 103.152815 1.073834 8.000000 301
5.291036  -10.155344 103.164645 1.073668 8.000000 302
5.308528  -10.155932 103.176410 1.073502 8.000000 303
5.326021  -10.156518 103.188111 1.073337 8.000000 304
5.343513  -10.157100 103.199748 1.073172 8.000000 305
5.361006  -10.157678 103.211322 1.073009 8.000000 306
5.378499  -10.158254 103.222833 1.072846 8.000000 307
5.395991  -10.158826 103.234281 1.072684 8.000000 308
5.413483  -10.159395 103.245668 1.072522 8.000000 309
5.430976  -10.159961 103.256993 1.072361 8.000000 310
5.448468  -10.160524 103.268257 1.072201 8.000000 311
5.465961  -10.161084 103.279460 1.072042 8.000000 312
5.483453  -10.161641 103.290602 1.071883 8.000000 313
5.500945  -10.162195 103.301685 1.071725 8.000000 314
5.518438  -10.162746 103.312709 1.071568 8.000000 315
5.535930  -10.163293 103.323673 1.071412 8.000000 316
5.553422  -10.163838 103.334578 1.071256 8.000000 317
5.570914  -10.164380 103.345425 1.071101 8.000000 318
5.588407  -10.164919 103.356214 1.070946 8.000000 319
5.605899  -10.165455 103.366945 1.070792 8.000000 320
5.623391  -10.165988 103.377619 1.070639 8.000000 321
5.640883  -10.166518 103.388236 1.070487 8.000000 322
5.658375  -10.167046 103.398796 1.070335 8.000000 323
5.675867  -10.167570 103.409299 1.070185 8.000000 324
5.693360  -10.168092 103.419747 1.070034 8.000000 325
5.710852  -10.168611 103.430139 1.069885 8.000000 326
5.728344  -10.169127 103.440476 1.069736 8.000000 327
5.745836  -10.169640 103.450757 1.069588 8.000000 328
5.763328  -10.170150 103.460983 1.069440 8.000000 329
5.780820  -10.170658 103.471156 1.069293 8.000000 330
5.798312  -10.171163 103.481273 1.069147 8.000000 331
5.815804  -10.171665 103.491337 1.069002 8.000000 332
5.833296  -10.172165 103.501347 1.068857 8.000000 333
5.850788  -10.172662 103.511304 1.068713 8.000000 334
5.868280  -10.173156 103.521208 1.068569 8.000000 335
5.885771  -10.173648 103.531059 1.068427 8.000000 336
5.903263  -10.174137 103.540857 1.068285 8.000000 337
5.920755  -10.174623 103.550603 1.068143 8.000000 338
5.938247  -10.175107 103.560297 1.068002 8.000000 339
5.955739  -10.175588 103.569939 1.067862 8.000000 340
5.973231  -10.176066 103.579530 1.067723 8.000000 341
5.990723  -10.176542 103.589069 1.067584 8.000000 342
6.008214  -10.177016 103.598558 1.067446 8.000000 343
6.025706  -10.177486 103.607995 1.067309 8.000000 344
6.043198  -10.177955 103.617382 1.067172 8.000000 345
6.060690  -10.178420 103.626719 1.067036 8.000000 346
6.078182  -10.178883 103.636005 1.066901 8.000000 347
6.095673  -10.179344 103.645242 1.066766 8.000000 348
6.113165  -10.179802 103.654429 1.066632 8.000000 349
6.130657  -10.180258 103.663566 1.066498 8.000000 350
6.148149  -10.180711 103.672655 1.066365 8.000000 351
6.165641  -10.181162 103.681694 1.066233 8.000000 352
6.183132  -10.181611 103.690685 1.066102 8.000000 353
6.200624  -10.182056 103.699628 1.065971 8.000000 354
6.218116  -10.182500 103.708521 1.065840 8.000000 355
6.235607  -10.182941 103.717367 1.065711 8.000000 356
6.253099  -10.183380 103.726165 1.065582 8.000000 357
6.270591  -10.183816 103.734916 1.065454 8.000000 358
6.288083  -10.184250 103.743619 1.065326 8.000000 359
6.305574  -10.184681 103.752275 1.065199 8.000000 360
6.323066  -10.185111 103.760883 1.065072 8.000000 361
6.340558  -10.185538 103.769445 1.064947 8.000000 362
6.358050  -10.185962 103.777960 1.064822 8.000000 363
6.375541  -10.186384 103.786429 1.064697 8.000000 364
6.393033  -10.186804 103.794852 1.064573 8.000000 365
6.410525  -10.187222 103.803228 1.064450 8.000000 366
6.428016  -10.187637 103.811559 1.064327 8.000000 367
6.445508  -10.188050 103.819844 1.064205 8.000000 368
6.463000  -10.188461 103.828084 1.064084 8.000000 369
6.480492  -10.188869 103.836278 1.063963 8.000000 370
6.497983  -10.189275 103.844428 1.063843 8.000000 371
6.515475  -10.189679 103.852533 1.063723 8.000000 372
6.532967  -10.190081 103.860592 1.063604 8.000000 373
6.550458  -10.190481 103.868608 1.063486 8.000000 374
6.567950  -10.190878 103.876579 1.063368 8.000000 375
6.585442  -10.191273 103.884506 1.063251 8.000000 376
6.602934  -10.191666 103.892389 1.063135 8.000000 377
