 # inv_tmp, energy, phys_var, phys_doublon, phys_num, step_i
0.0206842322088548  7.3079893995867966 89.6990440011493462 1.9622412785700429 8.0000000000000018 1
0.0410517043677525  6.5619018356243526 78.7047892511816656 1.9160393486597371 7.9999999999999982 2
0.0611218510107401  5.8354336332892611 68.9181693211860278 1.8712898407598246 8.0000000000000000 3
0.0809149506556089  5.1307559952709934 60.2990673881298846 1.8282080783175594 8.0000000000000000 4
0.1004515593863277  4.4495294937046079 52.7921454373785721 1.7869631495494940 8.0000000000000000 5
0.1197520556695713  3.7929519213324658 46.3308811838867456 1.7476800469769158 8.0000000000000000 6
0.1388362940948863  3.1618143420636429 40.8413067540292403 1.7104430182126618 8.0000000000000000 7
0.1577233561972186  2.5565588650455258 36.2452851438684789 1.6752996148002026 8.0000000000000000 8
0.1764313817371090  1.9773336082532251 32.4632459761061085 1.6422650467799014 8.0000000000000000 9
0.1949774628636275  1.4240422135940212 29.4163686360019767 1.6113265728253938 8.0000000000000000 10
0.2133775851958297  0.8963868449009982 27.0282461931010864 1.5824477584189811 8.0000000000000000 11
0.2316466027866150  0.3939047182661126 25.2260896352509647 1.5555725090461012 7.9999999999999982 12
0.2497982371926226  -0.0840011210770189 23.9415430584240170 1.5306288323627797 8.0000000000000000 13
0.2678450938206772  -0.5380357750590302 23.1111812770259846 1.5075323084962655 8.0000000000000000 14
0.2857986910320571  -0.9689902065891407 22.6767560148542060 1.4861892585730447 7.9999999999999982 15
0.3036694990837799  -1.3777218210889859 22.5852485781113508 1.4664996050900405 8.0000000000000000 16
0.3214669869506382  -1.7651372618885892 22.7887778145662701 1.4483594188905882 8.0000000000000000 17
0.3391996755573652  -2.1321769864479143 23.2444034526280419 1.4316631492252230 8.0000000000000000 18
0.3568751961267147  -2.4798013771387026 23.9138571720507684 1.4163055368356456 8.0000000000000018 19
0.3745003523645616  -2.8089782758376320 24.7632271587013051 1.4021832151398972 7.9999999999999982 20
0.3920811851673415  -3.1206719140941770 25.7626163940687363 1.3891960107045687 8.0000000000000000 21
0.4096230385194043  -3.4158332476596618 26.8857903877435511 1.3772479603571113 8.0000000000000000 22
0.4271306252822502  -3.6953917074032234 28.1098263206617887 1.3662480677128432 8.0000000000000000 23
0.4446080916723990  -3.9602483604096999 29.4147724875593148 1.3561108260146977 8.0000000000000000 24
0.4620590793718609  -4.2112704461337067 30.7833243955693199 1.3467565367445622 8.0000000000000000 25
0.4794867843987826  -4.4492872211308132 32.2005218053351001 1.3381114544499668 7.9999999999999982 26
0.4968940120676094  -4.6750870176566934 33.6534693246405752 1.3301077878076808 8.0000000000000018 27
0.5142832275713787  -4.8894153994699634 35.1310818289565958 1.3226835853914338 8.0000000000000018 28
0.5316566019103710  -5.0929742837612624 36.6238549430376068 1.3157825322400045 8.0000000000000018 29
0.5490160530621868  -5.2864218912080361 38.1236600319681287 1.3093536804417858 8.0000000000000000 30
0.5663632824331787  -5.4703733858576191 39.6235625809713099 1.3033511338317925 7.9999999999999964 31
0.5836998067480068  -5.6454020715992659 41.1176624553789196 1.2977337037523604 8.0000000000000000 32
0.6010269856233094  -5.8120410210086106 42.6009542925072537 1.2924645498182268 8.0000000000000000 33
0.6183460451350888  -5.9707850240138178 44.0692061557998755 1.2875108168561122 8.0000000000000000 34
0.6356580977304033  -6.1220927569911154 45.5188545518003806 1.2828432767192952 8.0000000000000000 35
0.6529641588557256  -6.2663890866154217 46.9469139491524956 1.2784359815349997 8.0000000000000000 36
0.6702651606804053  -6.4040674363568142 48.3508990263012493 1.2742659331269202 7.9999999999999982 37
0.6875619632873579  -6.5354921564163933 49.7287579947391052 1.2703127718498044 8.0000000000000000 38
0.7048553636874274  -6.6610008497993096 51.0788154845324627 1.2665584868501956 7.9999999999999964 39
0.7221461029914600  -6.7809066179313913 52.3997236283428194 1.2629871487942945 7.9999999999999982 40
0.7394348720472169  -6.8955001986488025 53.6904201315341254 1.2595846653460341 7.9999999999999982 41
0.7567223158186845  -7.0050519775168585 54.9500922636213573 1.2563385591024352 7.9999999999999991 42
0.7740090367546044  -7.1098138603074954 56.1781458463353403 1.2532377672680490 8.0000000000000000 43
0.7912955973623005  -7.2100210001655629 57.3741784433996713 1.2502724620482095 8.0000000000000018 44
0.8085825221730256  -7.3058933776226667 58.5379560752452477 1.2474338905376763 7.9999999999999982 45
0.8258702992567386  -7.3976372352869069 59.6693928876506092 1.2447142327566054 8.0000000000000000 46
0.8431593814179167  -7.4854463718626025 60.7685332966369316 1.2421064764223348 7.9999999999999982 47
0.8604501871799934  -7.5695033022501086 61.8355362132371909 1.2396043070290308 8.0000000000000000 48
0.8777431016444661  -7.6499802919503317 62.8706610216868000 1.2372020118261564 8.0000000000000000 49
0.8950384772916851  -7.7270402749522216 63.8742550440256309 1.2348943963315953 8.0000000000000000 50
0.9123366347737909  -7.8008376648059956 64.8467422740430948 1.2326767120785509 8.0000000000000000 51
0.9296378637361246  -7.8715190687630443 65.7886132049817434 1.2305445943710629 7.9999999999999991 52
0.9469424236915397  -7.9392239147676023 66.7004156094701131 1.2284940089064220 8.0000000000000018 53
0.9642505449622543  -8.0040850007792095 67.5827461577837028 1.2265212062102291 8.0000000000000000 54
0.9815624296959576  -8.0662289754436447 68.4362427826753219 1.2246226829185276 8.0000000000000000 55
0.9988782529566790  -8.1257767585589864 69.2615777165353421 1.2227951490291513 8.0000000000000000 56
1.0161981638861763  -8.1828439091423775 70.0594511403217552 1.2210355003296145 8.0000000000000000 57
1.0335222869281555  -8.2375409482230708 70.8305853942317896 1.2193407952903199 8.0000000000000000 58
1.0508507231052533  -8.2899736427940898 71.5757197080798733 1.2177082357888036 8.0000000000000000 59
1.0681835513372575  -8.3402432566689182 72.2956054153195566 1.2161351511026415 8.0000000000000000 60
1.0855208297883114  -8.3884467733257093 72.9910016190478359 1.2146189846752111 8.0000000000000000 61
1.1028625972307178  -8.4346770951915069 73.6626712815259879 1.2131572832196065 7.9999999999999982 62
1.1202088744132812  -8.4790232232301914 74.3113777110473706 1.2117476877817039 8.0000000000000000 63
1.1375596654227975  -8.5215704201556441 74.9378814216301237 1.2103879264337349 8.0000000000000000 64
1.1549149590282097  -8.5624003600984295 75.5429373422036434 1.2090758083150097 8.0000000000000000 65
1.1722747299980230  -8.6015912671107682 76.1272923528471495 1.2078092187768505 7.9999999999999982 66
1.1896389403827425  -8.6392180445002786 76.6916831263476837 1.2065861154246986 8.0000000000000000 67
1.2070075407552985  -8.6753523966357839 77.2368342539520540 1.2054045248820140 8.0000000000000036 68
1.2243804714036235  -8.7100629445661788 77.7634566347628322 1.2042625401283997 8.0000000000000000 69
1.2417576634707066  -8.7434153365324843 78.2722461088089574 1.2031583182886010 8.0000000000000018 70
1.2591390400385523  -8.7754723542304429 78.7638823144351790 1.2020900787700748 8.0000000000000018 71
1.2765245171534734  -8.8062940154930409 79.2390277513172236 1.2010561016649828 8.0000000000000000 72
1.2939140047910891  -8.8359376739048923 79.6983270311244496 1.2000547263479957 7.9999999999999973 73
1.3113074077602125  -8.8644581157307698 80.1424062986174874 1.1990843502145787 7.9999999999999982 74
1.3287046265455495  -8.8919076544344584 80.5718728067845547 1.1981434275156646 8.0000000000000000 75
1.3461055580897521  -8.9183362229794270 80.9873146304704505 1.1972304682540884 8.0000000000000000 76
1.3635100965159139  -8.9437914640352822 81.3893005038337094 1.1963440371160547 7.9999999999999964 77
1.3809181337920307  -8.9683188181624338 81.7783797678669657 1.1954827524174931 8.0000000000000018 78
1.3983295603393238  -8.9919616100078290 82.1550824151205035 1.1946452850505296 7.9999999999999991 79
1.4157442655866008  -9.0147611325167247 82.5199192196757281 1.1938303574197597 8.0000000000000000 80
1.4331621384730542  -9.0367567291451039 82.8733819413052402 1.1930367423614978 8.0000000000000000 81
1.4505830679020557  -9.0579858740453503 83.2159435936328435 1.1922632620420757 7.9999999999999982 82
1.4680069431486069  -9.0784842501904759 83.5480587669527495 1.1915087868334544 8.0000000000000018 83
1.4854336542231676  -9.0982858253998611 83.8701639971837949 1.1907722341661433 7.9999999999999991 84
1.5028630921946065  -9.1174229262306064 84.1826781732151943 1.1900525673607336 7.9999999999999964 85
1.5202951494749937  -9.1359263097018122 84.4860029756414974 1.1893487944402776 8.0000000000000000 86
1.5377297200689295  -9.1538252328246443 84.7805233405815386 1.1886599669264293 8.0000000000000018 87
1.5551666997900209  -9.1711475199176888 85.0666079429365141 1.1879851786226994 8.0000000000000000 88
1.5726059864470543  -9.1879196276942423 85.3446096940509591 1.1873235643884106 8.0000000000000000 89
1.5900474800022992  -9.2041667081159932 85.6148662493113903 1.1866742989070613 8.0000000000000000 90
1.6074910827042834  -9.2199126690154198 85.8777005217436056 1.1860365954527810 8.0000000000000036 91
1.6249366991972609  -9.2351802324966261 86.1334211981526607 1.1854097046584817 8.0000000000000000 92
1.6423842366094750  -9.2499909911318454 86.3823232547935049 1.1847929132891397 8.0000000000000000 93
1.6598336046221980  -9.2643654619774338 86.6246884699653350 1.1841855430234267 8.0000000000000000 94
1.6772847155214095  -9.2783231384396174 86.8607859312890298 1.1835869492466968 8.0000000000000000 95
1.6947374842338498  -9.2918825400257070 87.0908725357611786 1.1829965198580579 8.0000000000000000 96
1.7121918283490694  -9.3050612600217821 87.3151934809777401 1.1824136740939963 7.9999999999999982 97
1.7296476681289747  -9.3178760111419798 87.5339827461885704 1.1818378613707663 8.0000000000000018 98
1.7471049265062693  -9.3303426691983091 87.7474635620868781 1.1812685601474655 7.9999999999999964 99
1.7645635290730626  -9.3424763148433545 87.9558488684509001 1.1807052768115027 8.0000000000000018 100
1.7820234040608396  -9.3542912734402979 88.1593417589444073 1.1801475445878631 8.0000000000000000 101
1.7994844823128628  -9.3658011531171699 88.3581359125544026 1.1795949224734070 7.9999999999999982 102
1.8169466972500077  -9.3770188810634547 88.5524160112872920 1.1790469941971640 8.0000000000000000 103
1.8344099848309265  -9.3879567381284605 88.7423581438778797 1.1785033672074230 8.0000000000000000 104
1.8518742835073720  -9.3986263917812032 88.9281301953761272 1.1779636716862123 7.9999999999999982 105
1.8693395341754178  -9.4090389274921531 89.1098922225752546 1.1774275595916048 7.9999999999999964 106
1.8868056801232576  -9.4192048785968510 89.2877968153268000 1.1768947037281203 8.0000000000000000 107
1.9042726669761905  -9.4291342547010810 89.4619894438617109 1.1763647968453692 8.0000000000000018 108
1.9217404426393414  -9.4388365686867548 89.6326087922954287 1.1758375507649508 7.9999999999999982 109
1.9392089572386042  -9.4483208623766526 89.7997870785472969 1.1753126955355151 8.0000000000000000 110
1.9566781630602543  -9.4575957309151413 89.9636503609442997 1.1747899786157863 8.0000000000000018 111
1.9741480144896206  -9.4666693459208808 90.1243188318165522 1.1742691640852863 8.0000000000000036 112
1.9916184679491611  -9.4755494774659752 90.2819070984170651 1.1737500318823957 8.0000000000000000 113
2.0090894818362566  -9.4842435149348354 90.4365244515207110 1.1732323770693469 8.0000000000000000 114
2.0265610164609940  -9.4927584868140649 90.5882751220739095 1.1727160091236735 8.0000000000000000 115
2.0440330339841708  -9.5011010794635915 90.7372585262783673 1.1722007512556076 8.0000000000000000 116
2.0615054983557406  -9.5092776549171063 90.8835694994993446 1.1716864397508768 8.0000000000000000 117
2.0789783752538700  -9.5172942677585084 91.0272985193936108 1.1711729233383084 8.0000000000000036 118
2.0964516320247704  -9.5251566811191459 91.1685319186543666 1.1706600625816437 8.0000000000000000 119
2.1139252376234352  -9.5328703818391531 91.3073520877683222 1.1701477292949374 7.9999999999999991 120
2.1313991625553950  -9.5404405948341235 91.4438376681769967 1.1696358059808909 8.0000000000000018 121
2.1488733788195891  -9.5478722967070002 91.5780637362299075 1.1691241852914860 7.9999999999999982 122
2.1663478598524324  -9.5551702286432718 91.7101019783107319 1.1686127695102542 7.9999999999999947 123
2.1838225804731359  -9.5623389086257902 91.8400208575086481 1.1681014700555323 8.0000000000000000 124
2.2012975168303432  -9.5693826430041096 91.9678857721994802 1.1675902070040367 8.0000000000000018 125
2.2187726463501094  -9.5763055374515638 92.0937592068920310 1.1670789086341251 8.0000000000000000 126
2.2362479476852672  -9.5831115073418189 92.2177008756827092 1.1665675109880798 8.0000000000000000 127
2.2537234006661846  -9.5898042875750438 92.3397678586539143 1.1660559574527822 7.9999999999999982 128
2.2711989862529403  -9.5963874418825945 92.4600147315374841 1.1655441983581503 7.9999999999999982 129
2.2886746864889118  -9.6028643716375601 92.5784936889567831 1.1650321905927203 8.0000000000000000 130
2.3061504844557841  -9.6092383241972037 92.6952546615460733 1.1645198972357624 8.0000000000000018 131
2.3236263642299622  -9.6155124008021158 92.8103454272378201 1.1640072872053406 8.0000000000000000 132
2.3411023108403888  -9.6216895640556643 92.9238117169949192 1.1634943349217368 7.9999999999999982 133
2.3585783102277409  -9.6277726450059209 93.0356973152551916 1.1629810199856703 7.9999999999999982 134
2.3760543492049946  -9.6337643498514467 93.1460441553432474 1.1624673268707595 8.0000000000000000 135
2.3935304154193320  -9.6396672662909371 93.2548924100954224 1.1619532446296972 8.0000000000000000 136
2.4110064973153684  -9.6454838695359175 93.3622805779316138 1.1614387666136095 8.0000000000000000 137
2.4284825840996747  -9.6512165280044826 93.4682455645984618 1.1609238902040973 8.0000000000000000 138
2.4459586657065655  -9.6568675087131908 93.5728227607976351 1.1604086165574676 8.0000000000000000 139
2.4634347327651227  -9.6624389823835077 93.6760461159040290 1.1598929503606781 8.0000000000000018 140
2.4809107765674323  -9.6679330282779663 93.7779482079682793 1.1593768995985363 8.0000000000000000 141
2.4983867890379909  -9.6733516387807796 93.8785603101899966 1.1588604753317093 7.9999999999999982 142
2.5158627627042636  -9.6786967237365822 93.9779124540386874 1.1583436914851100 8.0000000000000000 143
2.5333386906683497  -9.6839701145603119 94.0760334891903796 1.1578265646462411 7.9999999999999973 144
2.5508145665797377  -9.6891735681307480 94.1729511404419526 1.1573091138731095 7.9999999999999964 145
2.5682903846091039  -9.6943087704791111 94.2686920617545212 1.1567913605113032 8.0000000000000018 146
2.5857661394231313  -9.6993773402840038 94.3632818875716453 1.1562733280198692 7.9999999999999973 147
2.6032418261603141  -9.7043808321830465 94.4567452815519459 1.1557550418056393 8.0000000000000018 148
2.6207174404077205  -9.7093207399109716 94.5491059828443952 1.1552365290656281 8.0000000000000000 149
2.6381929781786742  -9.7141984992737722 94.6403868500348437 1.1547178186372085 8.0000000000000000 150
2.6556684358913354  -9.7190154909674291 94.7306099028791806 1.1541989408557027 7.9999999999999991 151
2.6731438103481402  -9.7237730432498530 94.8197963619379180 1.1536799274191079 8.0000000000000000 152
2.6906190987160792  -9.7284724344736730 94.9079666862179039 1.1531608112596454 8.0000000000000000 153
2.7080942985077794  -9.7331148954875424 94.9951406089233927 1.1526416264218411 7.9999999999999982 154
2.7255694075633636  -9.7377016119128736 95.0813371714127271 1.1521224079468761 7.9999999999999973 155
2.7430444240330614  -9.7422337263027607 95.1665747554517480 1.1516031917629277 7.9999999999999991 156
2.7605193463605424  -9.7467123401892977 95.2508711138516162 1.1510840145812489 8.0000000000000000 157
2.7779941732669484  -9.7511385160253621 95.3342433995721592 1.1505649137977485 8.0000000000000018 158
2.7954689037355966  -9.7555132790263848 95.4167081933705532 1.1500459273998236 8.0000000000000000 159
2.8129435369973321  -9.7598376189175191 95.4982815300678851 1.1495270938782278 7.9999999999999964 160
2.8304180725165016  -9.7641124915911917 95.5789789235054030 1.1490084521437514 7.9999999999999982 161
2.8478925099775321  -9.7683388206797641 95.6588153902558531 1.1484900414485035 8.0000000000000036 162
2.8653668492720841  -9.7725174990479147 95.7378054721540082 1.1479719013116005 7.9999999999999982 163
2.8828410904867634  -9.7766493902089024 95.8159632577074660 1.1474540714490713 8.0000000000000018 164
2.9003152338913689  -9.7807353296686941 95.8933024024413925 1.1469365917077687 8.0000000000000018 165
2.9177892799276548  -9.7847761262018906 95.9698361482356290 1.1464195020031505 7.9999999999999982 166
2.9352632291985881  -9.7887725630630005 96.0455773417019856 1.1459028422607211 8.0000000000000036 167
2.9527370824580874  -9.7927253991362946 96.1205384516514556 1.1453866523609897 7.9999999999999991 168
2.9702108406012124  -9.7966353700278077 96.1947315856984204 1.1448709720877888 8.0000000000000036 169
2.9876845046548035  -9.8005031891021375 96.2681685060441481 1.1443558410797865 8.0000000000000036 170
3.0051580757685348  -9.8043295484672406 96.3408606444815661 1.1438412987850677 7.9999999999999982 171
3.0226315552063840  -9.8081151199097629 96.4128191166615380 1.1433273844186309 7.9999999999999991 172
3.0401049443384882  -9.8118605557835057 96.4840547356562013 1.1428141369226699 8.0000000000000000 173
3.0575782446333784  -9.8155664898535573 96.5545780248566530 1.1423015949295174 8.0000000000000000 174
3.0750514576505719  -9.8192335380982882 96.6243992302375432 1.1417897967271253 8.0000000000000000 175
3.0925245850335150  -9.8228622994715025 96.6935283320205485 1.1412787802269619 8.0000000000000000 176
3.1099976285028577  -9.8264533566266437 96.7619750557670955 1.1407685829342127 8.0000000000000036 177
3.1274705898500499  -9.8300072766052224 96.8297488829293513 1.1402592419201822 8.0000000000000018 178
3.1449434709312412  -9.8335246114911961 96.8968590608862996 1.1397507937967895 8.0000000000000000 179
3.1624162736614809  -9.8370058990330165 96.9633146124909757 1.1392432746930554 8.0000000000000000 180
3.1798890000091959  -9.8404516632351378 97.0291243451529226 1.1387367202334886 8.0000000000000018 181
3.1973616519909465  -9.8438624149204266 97.0942968594803801 1.1382311655182797 7.9999999999999964 182
3.2148342316664356  -9.8472386522651085 97.1588405575027139 1.1377266451052199 7.9999999999999982 183
3.2323067411337743  -9.8505808613074581 97.2227636504953665 1.1372231929932459 8.0000000000000036 184
3.2497791825249882  -9.8538895164317815 97.2860741664262036 1.1367208426075455 8.0000000000000018 185
3.2672515580017456  -9.8571650808288567 97.3487799570435755 1.1362196267861446 8.0000000000000036 186
3.2847238697513164  -9.8604080069339961 97.4108887046221525 1.1357195777678926 8.0000000000000018 187
3.3021961199827388  -9.8636187368439643 97.4724079283852518 1.1352207271817814 7.9999999999999964 188
3.3196683109231868  -9.8667977027137592 97.5333449906193266 1.1347231060375369 8.0000000000000000 189
3.3371404448145370  -9.8699453271343049 97.5937071024950171 1.1342267447173999 7.9999999999999982 190
3.3546125239101183  -9.8730620234920092 97.6535013296109895 1.1337316729690572 7.9999999999999991 191
3.3720845504716426  -9.8761481963111368 97.7127345972735242 1.1332379198996421 7.9999999999999982 192
3.3895565267663041  -9.8792042415798491 97.7714136955249558 1.1327455139707614 8.0000000000000000 193
3.4070284550640486  -9.8822305470607041 97.8295452839332711 1.1322544829944889 7.9999999999999982 194
3.4245003376349894  -9.8852274925864840 97.8871358961563374 1.1317648541302718 8.0000000000000000 195
3.4419721767469875  -9.8881954503419927 97.9441919442890878 1.1312766538827042 8.0000000000000000 196
