 # inv_tmp, energy, phys_var, phys_doublon, phys_num, step_i
0.0275199719951258  -0.6744925595937450 6.5727860874146149 0.0000000000000000 0.0000000000000000 1
0.0549123870320602  -0.8433094278824027 6.9082164411454734 0.0000000000000000 0.0000000000000000 2
0.0821761570766538  -1.0138791280201354 7.3000278862859389 0.0000000000000000 0.0000000000000000 3
0.1093104123657613  -1.1860746552795483 7.7496223482663797 0.0000000000000000 0.0000000000000000 4
0.1363144987978687  -1.3597679497637363 8.2582896261242098 0.0000000000000000 0.0000000000000000 5
0.1631879722808546  -1.5348312273125444 8.8271988035757118 0.0000000000000000 0.0000000000000000 6
0.1899305907243751  -1.7111380878956393 9.4573898230766993 0.0000000000000000 0.0000000000000000 7
0.2165423044991210  -1.8885643477805947 10.1497648633741093 0.0000000000000000 0.0000000000000000 8
0.2430232462768141  -2.0669885525980209 10.9050791394544877 0.0000000000000000 0.0000000000000000 9
0.2693737212050982  -2.2462921421062241 11.7239307562771096 0.0000000000000000 0.0000000000000000 10
0.2955941983549621  -2.4263592534433416 12.6067492976449298 0.0000000000000000 0.0000000000000000 11
0.3216853043027249  -2.6070761672549958 13.5537829199521855 0.0000000000000000 0.0000000000000000 12
0.3476478195751246  -2.7883304194909777 14.5650838454754261 0.0000000000000000 0.0000000000000000 13
0.3734826784994489  -2.9700096199811270 15.6404923064799348 0.0000000000000000 0.0000000000000000 14
0.3991909727692578  -3.1520000361850222 16.7796191718466687 0.0000000000000000 0.0000000000000000 15
0.4247739587716409  -3.3341850158080097 17.9818276815695306 0.0000000000000000 0.0000000000000000 16
0.4502330684385970  -3.5164433343636832 19.2462149083841290 0.0000000000000000 0.0000000000000000 17
0.4755699230997262  -3.6986475623919057 20.5715937453691566 0.0000000000000000 0.0000000000000000 18
0.5007863495441195  -3.8806625511907615 21.9564763682723658 0.0000000000000000 0.0000000000000000 19
0.5258843972646829  -4.0623441350506369 23.3990602265973422 0.0000000000000000 0.0000000000000000 20
0.5508663556758534  -4.2435381417885694 24.8972176648503378 0.0000000000000000 0.0000000000000000 21
0.5757347699812900  -4.4240797918629990 26.4484902545053231 0.0000000000000000 0.0000000000000000 22
0.6004924543335693  -4.6037935498308942 28.0500888222187896 0.0000000000000000 0.0000000000000000 23
0.6251425009801386  -4.7824934710766183 29.6988999900047332 0.0000000000000000 0.0000000000000000 24
0.6496882842297309  -4.9599840626338221 31.3914998039230184 0.0000000000000000 0.0000000000000000 25
0.6741334582953969  -5.1360616508878971 33.1241747310089210 0.0000000000000000 0.0000000000000000 26
0.6984819483618384  -5.3105162225696976 34.8929499670736050 0.0000000000000000 0.0000000000000000 27
0.7227379345673457  -5.4831336804306670 36.6936246425745196 0.0000000000000000 0.0000000000000000 28
0.7469058289611397  -5.6536984330023916 38.5218131647080853 0.0000000000000000 0.0000000000000000 29
0.7709902458693062  -5.8219962203916777 40.3729916164640699 0.0000000000000000 0.0000000000000000 30
0.7949959664503637  -5.9878170663284971 42.2425478709785622 0.0000000000000000 0.0000000000000000 31
0.8189278985204311  -6.1509582414150472 44.1258338913015322 0.0000000000000000 0.0000000000000000 32
0.8427910329579151  -6.3112271239550841 46.0182185847348393 0.0000000000000000 0.0000000000000000 33
0.8665903981446769  -6.4684438525794024 47.9151395729399923 0.0000000000000000 0.0000000000000000 34
0.8903310139581050  -6.6224436783394935 49.8121523220759030 0.0000000000000000 0.0000000000000000 35
0.9140178467972401  -6.7730789418294837 51.7049752420491728 0.0000000000000000 0.0000000000000000 36
0.9376557670139007  -6.9202206217571884 53.5895295952609558 0.0000000000000000 0.0000000000000000 37
0.9612495099401659  -7.0637594236388228 55.4619733335294995 0.0000000000000000 0.0000000000000000 38
0.9848036414740994  -7.2036063993894413 57.3187282855868077 0.0000000000000000 0.0000000000000000 39
1.0083225289257445  -7.3396931091395032 59.1565004251959294 0.0000000000000000 0.0000000000000000 40
1.0318103175547466  -7.4719713545112620 60.9722932419854544 0.0000000000000000 0.0000000000000000 41
1.0552709129673414  -7.6004125270527965 62.7634144974699808 0.0000000000000000 0.0000000000000000 42
1.0787079692988670  -7.7250066261194235 64.5274768656940125 0.0000000000000000 0.0000000000000000 43
1.1021248828996522  -7.8457610071147812 66.2623931244896625 0.0000000000000000 0.0000000000000000 44
1.1255247910742676  -7.9626989238492634 67.9663666770075281 0.0000000000000000 0.0000000000000000 45
1.1489105753000464  -8.0758579282582907 69.6378782454784186 0.0000000000000000 0.0000000000000000 46
1.1722848682703031  -8.1852881874149315 71.2756695947556125 0.0000000000000000 0.0000000000000000 47
1.1956500640678984  -8.2910507723172522 72.8787251189441179 0.0000000000000000 0.0000000000000000 48
1.2190083307708037  -8.3932159659914785 74.4462520684653839 0.0000000000000000 0.0000000000000000 49
1.2423616248169760  -8.4918616306519770 75.9776601157619496 0.0000000000000000 0.0000000000000000 50
1.2657117065044654  -8.5870716655492565 77.4725408637512345 0.0000000000000000 0.0000000000000000 51
1.2890601560676473  -8.6789345791727985 78.9306477995288560 0.0000000000000000 0.0000000000000000 52
1.3124083898456094  -8.7675421920075962 80.3518770930106143 0.0000000000000000 0.0000000000000000 53
1.3357576761386456  -8.8529884793191265 81.7362495412219943 0.0000000000000000 0.0000000000000000 54
1.3591091504290367  -8.9353685576142041 83.0838938675222636 0.0000000000000000 0.0000000000000000 55
1.3824638297192948  -9.0147778135658392 84.3950315036931329 0.0000000000000000 0.0000000000000000 56
1.4058226258122803  -9.0913111703057972 85.6699629129577431 0.0000000000000000 0.0000000000000000 57
1.4291863574212946  -9.1650624830345997 86.9090554541543838 0.0000000000000000 0.0000000000000000 58
1.4525557610534916  -9.2361240537977256 88.1127327412957300 0.0000000000000000 0.0000000000000000 59
1.4759315006562941  -9.3045862539286492 89.2814654179058635 0.0000000000000000 0.0000000000000000 60
1.4993141760541027  -9.3705372419540449 90.4157632407992793 0.0000000000000000 0.0000000000000000 61
1.5227043302318524  -9.4340627645810411 91.5161683520939562 0.0000000000000000 0.0000000000000000 62
1.5461024555436205  -9.4952460286323817 92.5832496098884974 0.0000000000000000 0.0000000000000000 63
1.5695089989393458  -9.5541676323619527 93.6175978458306020 0.0000000000000000 0.0000000000000000 64
1.5929243663116963  -9.6109055453811756 94.6198219204735551 0.0000000000000000 0.0000000000000000 65
1.6163489260691506  -9.6655351273780479 95.5905454536713535 0.0000000000000000 0.0000000000000000 66
1.6397830120413519  -9.7181291768503790 96.5304041162521855 0.0000000000000000 0.0000000000000000 67
1.6632269258195731  -9.7687580021496743 97.4400433799217183 0.0000000000000000 0.0000000000000000 68
1.6866809386295021  -9.8174895081998663 98.3201166340210619 0.0000000000000000 0.0000000000000000 69
1.7101452928261787  -9.8643892932843151 99.1712835897800744 0.0000000000000000 0.0000000000000000 70
1.7336202030923755  -9.9095207512608532 99.9942089045682678 0.0000000000000000 0.0000000000000000 71
1.7571058574125620  -9.9529451754535518 100.7895609699940422 0.0000000000000000 0.0000000000000000 72
1.7806024178851603  -9.9947218612708078 101.5580108182585946 0.0000000000000000 0.0000000000000000 73
1.8041100214265116  -10.0349082053079233 102.3002311107659636 0.0000000000000000 0.0000000000000000 74
1.8276287804110081  -10.0735597993084269 103.0168951815172562 0.0000000000000000 0.0000000000000000 75
1.8511587832834366  -10.1107305178838445 103.7086761152329188 0.0000000000000000 0.0000000000000000 76
1.8747000951718684  -10.1464725993314691 104.3762458464601366 0.0000000000000000 0.0000000000000000 77
1.8982527585224582  -10.1808367192499887 105.0202742711658885 0.0000000000000000 0.0000000000000000 78
1.9218167937713633  -10.2138720569413017 105.6414283665713185 0.0000000000000000 0.0000000000000000 79
1.9453922000636839  -10.2456263548102395 106.2403713183182532 0.0000000000000000 0.0000000000000000 80
1.9689789560247724  -10.2761459711415188 106.8177616565861285 0.0000000000000000 0.0000000000000000 81
1.9925770205855193  -10.3054759267516491 107.3742524045872386 0.0000000000000000 0.0000000000000000 82
2.0161863338601846  -10.3336599460908349 107.9104902440673754 0.0000000000000000 0.0000000000000000 83
2.0398068180729374  -10.3607404934131537 108.4271147031255822 0.0000000000000000 0.0000000000000000 84
2.0634383785275006  -10.3867588046484052 108.9247573719318609 0.0000000000000000 0.0000000000000000 85
2.0870809046129959  -10.4117549156024118 109.4040411518541163 0.0000000000000000 0.0000000000000000 86
2.1107342708382686  -10.4357676870886671 109.8655795431803881 0.0000000000000000 0.0000000000000000 87
2.1343983378865317  -10.4588348275580607 110.3099759761072249 0.0000000000000000 0.0000000000000000 88
2.1580729536820358  -10.4809929137483628 110.7378231890221656 0.0000000000000000 0.0000000000000000 89
2.1817579544605996  -10.5022774098246732 111.1497026573830169 0.0000000000000000 0.0000000000000000 90
2.2054531658361869  -10.5227226854285085 111.5461840757339900 0.0000000000000000 0.0000000000000000 91
2.2291584038561916  -10.5423620329990300 111.9278248946308167 0.0000000000000000 0.0000000000000000 92
2.2528734760387010  -10.5612276846765951 112.2951699135003878 0.0000000000000000 0.0000000000000000 93
2.2765981823856962  -10.5793508290473888 112.6487509297529215 0.0000000000000000 0.0000000000000000 94
2.3003323163668514  -10.5967616279400403 112.9890864438170297 0.0000000000000000 0.0000000000000000 95
2.3240756658693682  -10.6134892334404434 113.3166814191805400 0.0000000000000000 0.0000000000000000 96
2.3478280141099823  -10.6295618052507859 113.6320270960062828 0.0000000000000000 0.0000000000000000 97
2.3715891405060319  -10.6450065284828455 113.9356008564525666 0.0000000000000000 0.0000000000000000 98
2.3953588215031472  -10.6598496319437022 114.2278661394572907 0.0000000000000000 0.0000000000000000 99
2.4191368313577675  -10.6741164069449415 114.5092724024503923 0.0000000000000000 0.0000000000000000 100
2.4429229428732864  -10.6878312266428566 114.7802551272283438 0.0000000000000000 0.0000000000000000 101
2.4667169280891699  -10.7010175658978497 115.0412358670572388 0.0000000000000000 0.0000000000000000 102
2.4905185589228758  -10.7136980216252304 115.2926223319609562 0.0000000000000000 0.0000000000000000 103
2.5143276077648382  -10.7258943335971111 115.5348085090915902 0.0000000000000000 0.0000000000000000 104
2.5381438480271377  -10.7376274056452523 115.7681748150649810 0.0000000000000000 0.0000000000000000 105
2.5619670546468285  -10.7489173272076002 115.9930882771691500 0.0000000000000000 0.0000000000000000 106
2.5857970045451366  -10.7597833951564912 116.2099027404113372 0.0000000000000000 0.0000000000000000 107
2.6096334770439791  -10.7702441358433827 116.4189590974540778 0.0000000000000000 0.0000000000000000 108
2.6334762542414412  -10.7803173272939716 116.6205855385999826 0.0000000000000000 0.0000000000000000 109
2.6573251213479687  -10.7900200214874982 116.8150978191095817 0.0000000000000000 0.0000000000000000 110
2.6811798669851545  -10.7993685666554367 117.0027995412760902 0.0000000000000000 0.0000000000000000 111
2.7050402834490632  -10.8083786295369606 117.1839824488295818 0.0000000000000000 0.0000000000000000 112
2.7289061669400732  -10.8170652175315265 117.3589267313982845 0.0000000000000000 0.0000000000000000 113
2.7527773177612485  -10.8254427006924043 117.5279013369130610 0.0000000000000000 0.0000000000000000 114
2.7766535404872390  -10.8335248335088643 117.6911642899999038 0.0000000000000000 0.0000000000000000 115
2.8005346441056864  -10.8413247764289267 117.8489630145641343 0.0000000000000000 0.0000000000000000 116
2.8244204421330874  -10.8488551170788750 118.0015346589248963 0.0000000000000000 0.0000000000000000 117
2.8483107527069924  -10.8561278911400763 118.1491064220082023 0.0000000000000000 0.0000000000000000 118
2.8722053986563965  -10.8631546028481250 118.2918958792539144 0.0000000000000000 0.0000000000000000 119
2.8961042075520682  -10.8699462450834829 118.4301113070290512 0.0000000000000000 0.0000000000000000 120
2.9200070117385248  -10.8765133190269623 118.5639520044725970 0.0000000000000000 0.0000000000000000 121
2.9439136483492598  -10.8828658533575116 118.6936086118220146 0.0000000000000000 0.0000000000000000 122
2.9678239593067608  -10.8890134229733437 118.8192634243863779 0.0000000000000000 0.0000000000000000 123
2.9917377913087728  -10.8949651672212049 118.9410907014431871 0.0000000000000000 0.0000000000000000 124
3.0156549958021639  -10.9007298076217829 119.0592569694341023 0.0000000000000000 0.0000000000000000 125
3.0395754289456951  -10.9063156650823920 119.1739213189298994 0.0000000000000000 0.0000000000000000 126
3.0634989515628761  -10.9117306765909738 119.2852356949212833 0.0000000000000000 0.0000000000000000 127
3.0874254290860534  -10.9169824113878846 119.3933451800690193 0.0000000000000000 0.0000000000000000 128
3.1113547314927548  -10.9220780866145919 119.4983882706212199 0.0000000000000000 0.0000000000000000 129
3.1352867332352718  -10.9270245824402021 119.6004971447683545 0.0000000000000000 0.0000000000000000 130
3.1592213131643700  -10.9318284566689599 119.6997979232664022 0.0000000000000000 0.0000000000000000 131
3.1831583544479640  -10.9364959588332926 119.7964109222107538 0.0000000000000000 0.0000000000000000 132
3.2070977444855000  -10.9410330437787042 119.8904508978920092 0.0000000000000000 0.0000000000000000 133
3.2310393748187649  -10.9454453847479378 119.9820272837041841 0.0000000000000000 0.0000000000000000 134
3.2549831410397472  -10.9497383859730988 120.0712444191160131 0.0000000000000000 0.0000000000000000 135
3.2789289426961323  -10.9539171947853280 120.1582017707466150 0.0000000000000000 0.0000000000000000 136
3.3028766831949747  -10.9579867132524456 120.2429941456155120 0.0000000000000000 0.0000000000000000 137
3.3268262697050068  -10.9619516093556673 120.3257118966632646 0.0000000000000000 0.0000000000000000 138
3.3507776130580456  -10.9658163277170608 120.4064411206580587 0.0000000000000000 0.0000000000000000 139
3.3747306276498641  -10.9695850998898230 120.4852638486234468 0.0000000000000000 0.0000000000000000 140
3.3986852313408966  -10.9732619542238101 120.5622582289370968 0.0000000000000000 0.0000000000000000 141
3.4226413453570865  -10.9768507253190055 120.6374987032630344 0.0000000000000000 0.0000000000000000 142
3.4465988941911561  -10.9803550630796991 120.7110561754904268 0.0000000000000000 0.0000000000000000 143
3.4705578055045536  -10.9837784413823432 120.7829981738598235 0.0000000000000000 0.0000000000000000 144
3.4945180100302942  -10.9871241663699379 120.8533890064648801 0.0000000000000000 0.0000000000000000 145
3.5184794414768858  -10.9903953843858844 120.9222899103217372 0.0000000000000000 0.0000000000000000 146
3.5424420364335205  -10.9935950895600101 120.9897591942014117 0.0000000000000000 0.0000000000000000 147
3.5664057342766604  -10.9967261310594626 121.0558523754233704 0.0000000000000000 0.0000000000000000 148
3.5903704770781628  -10.9997912200169097 121.1206223108076330 0.0000000000000000 0.0000000000000000 149
3.6143362095150411  -11.0027929361482819 121.1841193219846815 0.0000000000000000 0.0000000000000000 150
3.6383028787809564  -11.0057337340720842 121.2463913152591317 0.0000000000000000 0.0000000000000000 151
3.6622704344995132  -11.0086159493420137 121.3074838962230189 0.0000000000000000 0.0000000000000000 152
3.6862388286394232  -11.0114418042043773 121.3674404793110853 0.0000000000000000 0.0000000000000000 153
3.7102080154315851  -11.0142134130914204 121.4263023924877700 0.0000000000000000 0.0000000000000000 154
3.7341779512881152  -11.0169327878615420 121.4841089772519638 0.0000000000000000 0.0000000000000000 155
3.7581485947233646  -11.0196018427967903 121.5408976841416688 0.0000000000000000 0.0000000000000000 156
3.7821199062769248  -11.0222223993680721 121.5967041639171384 0.0000000000000000 0.0000000000000000 157
3.8060918484386579  -11.0247961907777281 121.6515623545945886 0.0000000000000000 0.0000000000000000 158
3.8300643855757199  -11.0273248662892929 121.7055045645012257 0.0000000000000000 0.0000000000000000 159
3.8540374838616107  -11.0298099953535420 121.7585615515142763 0.0000000000000000 0.0000000000000000 160
3.8780111112072082  -11.0322530715397509 121.8107625986432367 0.0000000000000000 0.0000000000000000 161
3.9019852371937933  -11.0346555162808304 121.8621355861103126 0.0000000000000000 0.0000000000000000 162
3.9259598330080414  -11.0370186824405785 121.9127070600770111 0.0000000000000000 0.0000000000000000 163
3.9499348713789502  -11.0393438577109695 121.9625022981615530 0.0000000000000000 0.0000000000000000 164
3.9739103265166937  -11.0416322678472412 122.0115453718863421 0.0000000000000000 0.0000000000000000 165
3.9978861740533524  -11.0438850797479979 122.0598592061885910 0.0000000000000000 0.0000000000000000 166
4.0218623909855102  -11.0461034043875301 122.1074656361244877 0.0000000000000000 0.0000000000000000 167
4.0458389556186694  -11.0482882996069609 122.1543854608897277 0.0000000000000000 0.0000000000000000 168
4.0698158475134489  -11.0504407727708802 122.2006384952774880 0.0000000000000000 0.0000000000000000 169
4.0937930474335422  -11.0525617832955376 122.2462436186871031 0.0000000000000000 0.0000000000000000 170
4.1177705372953861  -11.0546522450546085 122.2912188217948710 0.0000000000000000 0.0000000000000000 171
4.1417483001194997  -11.0567130286682840 122.3355812509926324 0.0000000000000000 0.0000000000000000 172
4.1657263199834640  -11.0587449636810220 122.3793472506947353 0.0000000000000000 0.0000000000000000 173
4.1897045819764944  -11.0607488406332699 122.4225324036122657 0.0000000000000000 0.0000000000000000 174
4.2136830721555745  -11.0627254130320924 122.4651515690860890 0.0000000000000000 0.0000000000000000 175
4.2376617775030985  -11.0646753992255373 122.5072189195698087 0.0000000000000000 0.0000000000000000 176
4.2616406858859950  -11.0665994841851454 122.5487479753458899 0.0000000000000000 0.0000000000000000 177
4.2856197860162837  -11.0684983212011367 122.5897516375592318 0.0000000000000000 0.0000000000000000 178
4.3095990674130320  -11.0703725334942558 122.6302422196442308 0.0000000000000000 0.0000000000000000 179
4.3335785203656672  -11.0722227157483850 122.6702314772219324 0.0000000000000000 0.0000000000000000 180
4.3575581358986000  -11.0740494355675700 122.7097306365373868 0.0000000000000000 0.0000000000000000 181
4.3815379057371464  -11.0758532348611425 122.7487504215062728 0.0000000000000000 0.0000000000000000 182
4.4055178222746658  -11.0776346311603646 122.7873010794362756 0.0000000000000000 0.0000000000000000 183
4.4294978785409302  -11.0793941188698817 122.8253924054847204 0.0000000000000000 0.0000000000000000 184
4.4534780681716413  -11.0811321704570762 122.8630337659130447 0.0000000000000000 0.0000000000000000 185
4.4774583853790908  -11.0828492375823728 122.9002341201943125 0.0000000000000000 0.0000000000000000 186
4.5014388249239170  -11.0845457521732129 122.9370020420279559 0.0000000000000000 0.0000000000000000 187
4.5254193820879207  -11.0862221274445893 122.9733457393141407 0.0000000000000000 0.0000000000000000 188
4.5494000526479139  -11.0878787588685199 123.0092730731364554 0.0000000000000000 0.0000000000000000 189
4.5733808328505674  -11.0895160250951008 123.0447915758006872 0.0000000000000000 0.0000000000000000 190
4.5973617193882115  -11.0911342888273374 123.0799084679740645 0.0000000000000000 0.0000000000000000 191
4.6213427093755834  -11.0927338976521099 123.1146306749684811 0.0000000000000000 0.0000000000000000 192
4.6453238003274739  -11.0943151848292523 123.1489648422078176 0.0000000000000000 0.0000000000000000 193
4.6693049901372401  -11.0958784700409723 123.1829173499194923 0.0000000000000000 0.0000000000000000 194
