 # inv_tmp, energy, phys_var, phys_doublon, phys_num, step_i
0.0275177588625680  -0.6803374500300542 6.3831261165080608 0.0000000000000000 0.0000000000000000 1
0.0549121693829109  -0.8435981486615751 6.6948390747540376 0.0000000000000000 0.0000000000000000 2
0.0821825606426858  -1.0081899745964780 7.0582584836348250 0.0000000000000000 0.0000000000000000 3
0.1093284731329929  -1.1739845142480010 7.4740785827140623 0.0000000000000000 0.0000000000000000 4
0.1363496681863154  -1.3408458782274022 7.9428335171952140 0.0000000000000000 0.0000000000000000 5
0.1632461354238913  -1.5086314223631052 8.4648907052285018 0.0000000000000000 0.0000000000000000 6
0.1900180978451724  -1.6771926398677057 9.0404464724065292 0.0000000000000000 0.0000000000000000 7
0.2166660142124531  -1.8463762217507267 9.6695241734375585 0.0000000000000000 0.0000000000000000 8
0.2431905784330878  -2.0160252752249326 10.3519749572889683 0.0000000000000000 0.0000000000000000 9
0.2695927157136600  -2.1859806822169965 11.0874812545428281 0.0000000000000000 0.0000000000000000 10
0.2958735753529916  -2.3560825726086678 11.8755629769211879 0.0000000000000000 0.0000000000000000 11
0.3220345201502815  -2.5261718799590014 12.7155863225498464 0.0000000000000000 0.0000000000000000 12
0.3480771125257459  -2.6960919416294060 13.6067749809829035 0.0000000000000000 0.0000000000000000 13
0.3740030975776437  -2.8656901008343967 14.5482234342851875 0.0000000000000000 0.0000000000000000 14
0.3998143834246031  -3.0348192654689563 15.5389119597359731 0.0000000000000000 0.0000000000000000 15
0.4255130192987677  -3.2033393778056602 16.5777228609644425 0.0000000000000000 0.0000000000000000 16
0.4511011719569381  -3.3711187503756372 17.6634573920050357 0.0000000000000000 0.0000000000000000 17
0.4765811010580381  -3.5380352264869148 18.7948527964715097 0.0000000000000000 0.0000000000000000 18
0.5019551342116358  -3.7039771287174927 19.9705988643180348 0.0000000000000000 0.0000000000000000 19
0.5272256424311795  -3.8688439650795816 21.1893534128046532 0.0000000000000000 0.0000000000000000 20
0.5523950167259805  -4.0325468700497034 22.4497561264083885 0.0000000000000000 0.0000000000000000 21
0.5774656465382264  -4.1950087659237711 23.7504402414646449 0.0000000000000000 0.0000000000000000 22
0.6024399006772146  -4.3561642386078390 25.0900416332369787 0.0000000000000000 0.0000000000000000 23
0.6273201113253931  -4.5159591306363023 26.4672049530597491 0.0000000000000000 0.0000000000000000 24
0.6521085615932475  -4.6743498626038305 27.8805865677776161 0.0000000000000000 0.0000000000000000 25
0.6768074769865517  -4.8313025020455544 29.3288541691727858 0.0000000000000000 0.0000000000000000 26
0.7014190210241247  -4.9867916059018826 30.8106830435151728 0.0000000000000000 0.0000000000000000 27
0.7259452951110626  -5.1407988689182638 32.3247491168478547 0.0000000000000000 0.0000000000000000 28
0.7503883426353398  -5.2933116155640931 33.8697190162373474 0.0000000000000000 0.0000000000000000 29
0.7747501571183424  -5.4443211772528297 35.4442375071531544 0.0000000000000000 0.0000000000000000 30
0.7990326941158539  -5.5938211997749150 37.0469127786562638 0.0000000000000000 0.0000000000000000 31
0.8232378864386248  -5.7418059278925311 38.6763001474909842 0.0000000000000000 0.0000000000000000 32
0.8473676621443681  -5.8882685149665530 40.3308848358717142 0.0000000000000000 0.0000000000000000 33
0.8714239646492732  -6.0331994052611773 42.0090645422163220 0.0000000000000000 0.0000000000000000 34
0.8954087742205223  -6.1765848351630277 43.7091325659534959 0.0000000000000000 0.0000000000000000 35
0.9193241300453909  -6.3184054969220220 45.4292622638105357 0.0000000000000000 0.0000000000000000 36
0.9431721520308491  -6.4586354046420444 47.1674936031844751 0.0000000000000000 0.0000000000000000 37
0.9669550614733141  -6.5972409971168364 48.9217225366242161 0.0000000000000000 0.0000000000000000 38
0.9906751997539103  -6.7341805057557522 50.6896938494818130 0.0000000000000000 0.0000000000000000 39
1.0143350442618728  -6.8694036083665608 52.4689980311473434 0.0000000000000000 0.0000000000000000 40
1.0379372208279540  -7.0028513811165585 54.2570725912414957 0.0000000000000000 0.0000000000000000 41
1.0614845120595753  -7.1344565518121694 56.0512080896670710 0.0000000000000000 0.0000000000000000 42
1.0849798611070858  -7.2641440480266448 57.8485589791511998 0.0000000000000000 0.0000000000000000 43
1.1084263705509871  -7.3918318239362479 59.6461591780042255 0.0000000000000000 0.0000000000000000 44
1.1318272962768969  -7.5174319404131573 61.4409421076186675 0.0000000000000000 0.0000000000000000 45
1.1551860363904416  -7.6408518644047252 63.2297647527836517 0.0000000000000000 0.0000000000000000 46
1.1785061154092984  -7.7619959463286694 65.0094351423502417 0.0000000000000000 0.0000000000000000 47
1.2017911641451051  -7.8807670285125164 66.7767425117396130 0.0000000000000000 0.0000000000000000 48
1.2250448958449116  -7.9970681339066862 68.5284893045986507 0.0000000000000000 0.0000000000000000 49
1.2482710792924083  -8.1108041826025001 70.2615241041045948 0.0000000000000000 0.0000000000000000 50
1.2714735096669574  -8.2218836841652294 71.9727745582520555 0.0000000000000000 0.0000000000000000 51
1.2946559780191635  -8.3302203563922976 73.6592793786263940 0.0000000000000000 0.0000000000000000 52
1.3178222402435174  -8.4357346256445886 75.3182185468013046 0.0000000000000000 0.0000000000000000 53
1.3409759864119832  -8.5383549700788954 76.9469409523362344 0.0000000000000000 0.0000000000000000 54
1.3641208112801977  -8.6380190745476622 78.5429888051256029 0.0000000000000000 0.0000000000000000 55
1.3872601866949832  -8.7346747741888695 80.1041183048747172 0.0000000000000000 0.0000000000000000 56
1.4103974365245742  -8.8282807723422323 81.6283162032439265 0.0000000000000000 0.0000000000000000 57
1.4335357146085175  -8.9188071269492664 83.1138120510912017 0.0000000000000000 0.0000000000000000 58
1.4566779860903587  -9.0062355076191611 84.5590860761236911 0.0000000000000000 0.0000000000000000 59
1.4798270123603088  -9.0905592327316960 85.9628727780267354 0.0000000000000000 0.0000000000000000 60
1.5029853397038477  -9.1717831020488916 87.3241604530702062 0.0000000000000000 0.0000000000000000 61
1.5261552916313075  -9.2499230451551089 88.6421869642042566 0.0000000000000000 0.0000000000000000 62
1.5493389647571669  -9.3250056095687164 89.9164321533676087 0.0000000000000000 0.0000000000000000 63
1.5725382280090878  -9.3970673145761303 91.1466073493503188 0.0000000000000000 0.0000000000000000 64
1.5957547248771258  -9.4661538978116351 92.3326424577417129 0.0000000000000000 0.0000000000000000 65
1.6189898783633796  -9.5323194814765912 93.4746711310551888 0.0000000000000000 0.0000000000000000 66
1.6422448982608480  -9.5956256840299474 94.5730145097256525 0.0000000000000000 0.0000000000000000 67
1.6655207903758349  -9.6561407013783125 95.6281640015327525 0.0000000000000000 0.0000000000000000 68
1.6888183673087409  -9.7139383792428582 96.6407635315745637 0.0000000000000000 0.0000000000000000 69
1.7121382604209627  -9.7690972956694786 97.6115916506652752 0.0000000000000000 0.0000000000000000 70
1.7354809326382861  -9.8216998697478921 98.5415438402076802 0.0000000000000000 0.0000000000000000 71
1.7588466917709666  -9.8718315096625773 99.4316152991242461 0.0000000000000000 0.0000000000000000 72
1.7822357040652694  -9.9195798103330723 100.2828844457731634 0.0000000000000000 0.0000000000000000 73
1.8056480077383934  -9.9650338082075329 101.0964973169418357 0.0000000000000000 0.0000000000000000 74
1.8290835262866445  -10.0082832983171066 101.8736529984970502 0.0000000000000000 0.0000000000000000 75
1.8525420813939499  -10.0494182165228949 102.6155901791481995 0.0000000000000000 0.0000000000000000 76
1.8760234053031801  -10.0885280880130441 103.3235748806829690 0.0000000000000000 0.0000000000000000 77
1.8995271525454651  -10.1257015415398985 103.9988893852843432 0.0000000000000000 0.0000000000000000 78
1.9230529109521959  -10.1610258876166881 104.6428223531393371 0.0000000000000000 0.0000000000000000 79
1.9466002119004326  -10.1945867579017371 105.2566601013258492 0.0000000000000000 0.0000000000000000 80
1.9701685397648514  -10.2264678022599114 105.8416789975512700 0.0000000000000000 0.0000000000000000 81
1.9937573405682867  -10.2567504394765443 106.3991389092695101 0.0000000000000000 0.0000000000000000 82
2.0173660298384326  -10.2855136572784662 106.9302776395137613 0.0000000000000000 0.0000000000000000 83
2.0409939996907451  -10.3128338571576776 107.4363062749042825 0.0000000000000000 0.0000000000000000 84
2.0646406251671778  -10.3387847394675756 107.9184053682159288 0.0000000000000000 0.0000000000000000 85
2.0883052698675884  -10.3634372243412010 108.3777218770966329 0.0000000000000000 0.0000000000000000 86
2.1119872909156188  -10.3868594041420828 108.8153667815730046 0.0000000000000000 0.0000000000000000 87
2.1356860433040956  -10.4091165233783123 109.2324133054280395 0.0000000000000000 0.0000000000000000 88
2.1594008836666378  -10.4302709822726563 109.6298956700470626 0.0000000000000000 0.0000000000000000 89
2.1831311735226362  -10.4503823604686499 110.0088083135671724 0.0000000000000000 0.0000000000000000 90
2.2068762820422161  -10.4695074576538723 110.3701055128926356 0.0000000000000000 0.0000000000000000 91
2.2306355883765128  -10.4877003481853830 110.7147013511226987 0.0000000000000000 0.0000000000000000 92
2.2544084835967215  -10.5050124471020592 111.0434699780186065 0.0000000000000000 0.0000000000000000 93
2.2781943722831151  -10.5214925851976027 111.3572461161715381 0.0000000000000000 0.0000000000000000 94
2.3019926738026930  -10.5371870911024299 111.6568257704243194 0.0000000000000000 0.0000000000000000 95
2.3258028233114150  -10.5521398785799150 111.9429671027726414 0.0000000000000000 0.0000000000000000 96
2.3496242725142218  -10.5663925374799561 112.2163914393693460 0.0000000000000000 0.0000000000000000 97
2.3734564902132682  -10.5799844270110590 112.4777843803558710 0.0000000000000000 0.0000000000000000 98
2.3972989626720902  -10.5929527701893971 112.7277969870168306 0.0000000000000000 0.0000000000000000 99
2.4211511938208186  -10.6053327485013558 112.9670470242036231 0.0000000000000000 0.0000000000000000 100
2.4450127053250457  -10.6171575959748026 113.1961202390971835 0.0000000000000000 0.0000000000000000 101
2.4688830365386392  -10.6284586919949504 113.4155716601867425 0.0000000000000000 0.0000000000000000 102
2.4927617443585706  -10.6392656523246121 113.6259269028534220 0.0000000000000000 0.0000000000000000 103
2.5166484029978333  -10.6496064178970151 113.8276834701735538 0.0000000000000000 0.0000000000000000 104
2.5405426036906440  -10.6595073410432875 114.0213120395225417 0.0000000000000000 0.0000000000000000 105
2.5644439543424200  -10.6689932688981166 114.2072577272849259 0.0000000000000000 0.0000000000000000 106
2.5883520791354941  -10.6780876237964133 114.3859413254786830 0.0000000000000000 0.0000000000000000 107
2.6122666181001026  -10.6868124805332698 114.5577605054071313 0.0000000000000000 0.0000000000000000 108
2.6361872266589579  -10.6951886404093148 114.7230909845779365 0.0000000000000000 0.0000000000000000 109
2.6601135751525558  -10.7032357020256672 114.8822876540912148 0.0000000000000000 0.0000000000000000 110
2.6840453483513889  -10.7109721288271960 115.0356856645219636 0.0000000000000000 0.0000000000000000 111
2.7079822449603257  -10.7184153134216054 115.1836014690176739 0.0000000000000000 0.0000000000000000 112
2.7319239771196324  -10.7255816387248384 115.3263338229157284 0.0000000000000000 0.0000000000000000 113
2.7558702699064122  -10.7324865360018471 115.4641647396730946 0.0000000000000000 0.0000000000000000 114
2.7798208608396133  -10.7391445398863272 115.5973604033039521 0.0000000000000000 0.0000000000000000 115
2.8037754993912434  -10.7455693404739119 115.7261720378475758 0.0000000000000000 0.0000000000000000 116
2.8277339465059188  -10.7517738325917875 115.8508367346567667 0.0000000000000000 0.0000000000000000 117
2.8516959741305068  -10.7577701623530544 115.9715782385051170 0.0000000000000000 0.0000000000000000 118
2.8756613647552349  -10.7635697711081715 116.0886076936768916 0.0000000000000000 0.0000000000000000 119
2.8996299109673442  -10.7691834369075430 116.2021243513257929 0.0000000000000000 0.0000000000000000 120
2.9236014150181107  -10.7746213135900035 116.3123162394797845 0.0000000000000000 0.0000000000000000 121
2.9475756884038051  -10.7798929676112394 116.4193607971298121 0.0000000000000000 0.0000000000000000 122
2.9715525514609977  -10.7850074127248128 116.5234254738787882 0.0000000000000000 0.0000000000000000 123
2.9955318329764316  -10.7899731426259979 116.6246682966440176 0.0000000000000000 0.0000000000000000 124
3.0195133698115617  -10.7947981616659447 116.7232384049092673 0.0000000000000000 0.0000000000000000 125
3.0434970065417244  -10.7994900137402965 116.8192765560085888 0.0000000000000000 0.0000000000000000 126
3.0674825951098357  -10.8040558094528247 116.9129156019046718 0.0000000000000000 0.0000000000000000 127
3.0914699944943975  -10.8085022516507401 117.0042809388901617 0.0000000000000000 0.0000000000000000 128
3.1154590703915663  -10.8128356594244401 117.0934909316052028 0.0000000000000000 0.0000000000000000 129
3.1394496949109607  -10.8170619906601022 117.1806573127190347 0.0000000000000000 0.0000000000000000 130
3.1634417462848528  -10.8211868632298689 117.2658855595804113 0.0000000000000000 0.0000000000000000 131
3.1874351085903525  -10.8252155748997669 117.3492752490879525 0.0000000000000000 0.0000000000000000 132
3.2114296714841850  -10.8291531220318547 117.4309203919852251 0.0000000000000000 0.0000000000000000 133
3.2354253299496203  -10.8330042171528298 117.5109097477289737 0.0000000000000000 0.0000000000000000 134
3.2594219840551300  -10.8367733054577080 117.5893271210308200 0.0000000000000000 0.0000000000000000 135
3.2834195387243135  -10.8404645803132595 117.6662516411178103 0.0000000000000000 0.0000000000000000 136
3.3074179035166651  -10.8440819978222542 117.7417580247077638 0.0000000000000000 0.0000000000000000 137
3.3314169924187231  -10.8476292905063580 117.8159168236448124 0.0000000000000000 0.0000000000000000 138
3.3554167236451700  -10.8511099801617554 117.8887946580897648 0.0000000000000000 0.0000000000000000 139
3.3794170194494519  -10.8545273899388093 117.9604544361163221 0.0000000000000000 0.0000000000000000 140
3.4034178059434881  -10.8578846556937894 118.0309555605138314 0.0000000000000000 0.0000000000000000 141
3.4274190129260629  -10.8611847366578438 118.1003541235561016 0.0000000000000000 0.0000000000000000 142
3.4514205737194952  -10.8644304254657023 118.1687030904517144 0.0000000000000000 0.0000000000000000 143
3.4754224250141936  -10.8676243575840523 118.2360524721523376 0.0000000000000000 0.0000000000000000 144
3.4994245067207284  -10.8707690201769154 118.3024494881548634 0.0000000000000000 0.0000000000000000 145
3.5234267618290445  -10.8738667604431853 118.3679387198974950 0.0000000000000000 0.0000000000000000 146
3.5474291362744750  -10.8769197934592192 118.4325622553146360 0.0000000000000000 0.0000000000000000 147
3.5714315788102158  -10.8799302095573776 118.4963598250822088 0.0000000000000000 0.0000000000000000 148
3.5954340408859311  -10.8828999812694303 118.5593689310525178 0.0000000000000000 0.0000000000000000 149
3.6194364765321971  -10.8858309698618463 118.6216249673491347 0.0000000000000000 0.0000000000000000 150
3.6434388422504687  -10.8887249314884897 118.6831613345637209 0.0000000000000000 0.0000000000000000 151
3.6674410969083033  -10.8915835229843658 118.7440095474687780 0.0000000000000000 0.0000000000000000 152
3.6914432016395544  -10.8944083073227631 118.8041993366370548 0.0000000000000000 0.0000000000000000 153
3.7154451197492961  -10.8972007587566448 118.8637587443334951 0.0000000000000000 0.0000000000000000 154
3.7394468166232198  -10.8999622676636783 118.9227142150222392 0.0000000000000000 0.0000000000000000 155
3.7634482596412755  -10.9026941451133936 118.9810906808133666 0.0000000000000000 0.0000000000000000 156
3.7874494180953331  -10.9053976271733664 119.0389116421502251 0.0000000000000000 0.0000000000000000 157
3.8114502631106548  -10.9080738789705727 119.0961992440221877 0.0000000000000000 0.0000000000000000 158
3.8354507675709781  -10.9107239985228510 119.1529743479698737 0.0000000000000000 0.0000000000000000 159
3.8594509060470195  -10.9133490203545200 119.2092566001323917 0.0000000000000000 0.0000000000000000 160
3.8834506547282124  -10.9159499189093090 119.2650644955717922 0.0000000000000000 0.0000000000000000 161
3.9074499913575198  -10.9185276117728272 119.3204154390941198 0.0000000000000000 0.0000000000000000 162
3.9314488951691491  -10.9210829627162145 119.3753258027752793 0.0000000000000000 0.0000000000000000 163
3.9554473468290183  -10.9236167845716103 119.4298109803836638 0.0000000000000000 0.0000000000000000 164
3.9794453283778299  -10.9261298419496704 119.4838854388827798 0.0000000000000000 0.0000000000000000 165
4.0034428231766173  -10.9286228538084913 119.5375627671839851 0.0000000000000000 0.0000000000000000 166
4.0274398158546196  -10.9310964958828194 119.5908557223089588 0.0000000000000000 0.0000000000000000 167
4.0514362922593845  -10.9335514029818981 119.6437762731137013 0.0000000000000000 0.0000000000000000 168
4.0754322394089550  -10.9359881711636238 119.6963356417122668 0.0000000000000000 0.0000000000000000 169
4.0994276454460614  -10.9384073597923859 119.7485443427363236 0.0000000000000000 0.0000000000000000 170
4.1234224995941791  -10.9408094934872935 119.8004122205500437 0.0000000000000000 0.0000000000000000 171
4.1474167921153819  -10.9431950639673765 119.8519484845414667 0.0000000000000000 0.0000000000000000 172
4.1714105142698905  -10.9455645317994659 119.9031617425959553 0.0000000000000000 0.0000000000000000 173
4.1954036582772121  -10.9479183280546692 119.9540600328569866 0.0000000000000000 0.0000000000000000 174
4.2193962172788169  -10.9502568558785107 120.0046508538692223 0.0000000000000000 0.0000000000000000 175
4.2433881853022442  -10.9525804919796741 120.0549411931945087 0.0000000000000000 0.0000000000000000 176
4.2673795572265911  -10.9548895880421355 120.1049375545868401 0.0000000000000000 0.0000000000000000 177
4.2913703287492844  -10.9571844720648492 120.1546459838048122 0.0000000000000000 0.0000000000000000 178
4.3153604963541028  -10.9594654496331572 120.2040720931373130 0.0000000000000000 0.0000000000000000 179
4.3393500572803578  -10.9617328051257168 120.2532210847126208 0.0000000000000000 0.0000000000000000 180
4.3633390094931945  -10.9639868028605498 120.3020977726573193 0.0000000000000000 0.0000000000000000 181
4.3873273516549496  -10.9662276881835759 120.3507066041673852 0.0000000000000000 0.0000000000000000 182
4.4113150830975156  -10.9684556885027469 120.3990516795489469 0.0000000000000000 0.0000000000000000 183
4.4353022037956569  -10.9706710142708594 120.4471367712855709 0.0000000000000000 0.0000000000000000 184
4.4592887143412492  -10.9728738599197175 120.4949653421817288 0.0000000000000000 0.0000000000000000 185
4.4832746159183703  -10.9750644047483092 120.5425405626322970 0.0000000000000000 0.0000000000000000 186
4.5072599102792337  -10.9772428137675355 120.5898653270644019 0.0000000000000000 0.0000000000000000 187
4.5312445997208988  -10.9794092385036137 120.6369422695919695 0.0000000000000000 0.0000000000000000 188
4.5552286870627423  -10.9815638177626180 120.6837737789277867 0.0000000000000000 0.0000000000000000 189
4.5792121756246393  -10.9837066783578656 120.7303620125866388 0.0000000000000000 0.0000000000000000 190
4.6031950692058343  -10.9858379358023797 120.7767089104188472 0.0000000000000000 0.0000000000000000 191
4.6271773720644731  -10.9879576949680615 120.8228162075064915 0.0000000000000000 0.0000000000000000 192
4.6511590888977539  -10.9900660507132777 120.8686854464542222 0.0000000000000000 0.0000000000000000 193
4.6751402248226839  -10.9921630884806021 120.9143179891052853 0.0000000000000000 0.0000000000000000 194
