 # inv_tmp, energy, phys_var, phys_doublon, phys_num, step_i
0.0608033974650327  -0.8928988080012563 6.8524886489122583 0.0000000000000000 16.0000000000000000 1
0.1202596733698552  -1.2613575932317254 7.7255338699868608 0.0000000000000000 16.0000000000000000 2
0.1784117173685253  -1.6300781613264994 8.8430371195400408 0.0000000000000000 16.0000000000000000 3
0.2353119922194717  -1.9974173204845869 10.2004132341400044 0.0000000000000000 16.0000000000000000 4
0.2910200022508599  -2.3618992600377253 11.7899595960524302 0.0000000000000000 16.0000000000000000 5
0.3455996881926242  -2.7222535493482729 13.6013889363321070 0.0000000000000000 16.0000000000000000 6
0.3991170273841182  -3.0774310275820915 15.6224650136887071 0.0000000000000000 16.0000000000000000 7
0.4516379979651545  -3.4266028812625704 17.8396691340580169 0.0000000000000000 16.0000000000000000 8
0.5032269603024618  -3.7691487538370274 20.2388424782755294 0.0000000000000000 16.0000000000000000 9
0.5539454367856322  -4.1046389623743256 22.8057647878848009 0.0000000000000000 16.0000000000000000 10
0.6038512373239522  -4.4328143095242307 25.5266405383104598 0.0000000000000000 16.0000000000000000 11
0.6529978768403444  -4.7535651358142328 28.3884689537393093 0.0000000000000000 16.0000000000000000 12
0.7014342509484094  -5.0669096424153759 31.3792762273687700 0.0000000000000000 16.0000000000000000 13
0.7492045630463255  -5.3729704556920570 34.4881904113926083 0.0000000000000000 16.0000000000000000 14
0.7963485179720414  -5.6719480515856944 37.7053447800896464 0.0000000000000000 16.0000000000000000 15
0.8429018054226053  -5.9640899973588013 41.0216060569867764 0.0000000000000000 16.0000000000000000 16
0.8888968863506348  -6.2496558623205001 44.4281401053700762 0.0000000000000000 16.0000000000000000 17
0.9343640679160337  -6.5288788772591486 47.9158481625149051 0.0000000000000000 16.0000000000000000 18
0.9793328118307352  -6.8019267208702505 51.4747285974689959 0.0000000000000000 16.0000000000000000 19
1.0238331749513412  -7.0688649075090240 55.0932385425920543 0.0000000000000000 16.0000000000000000 20
1.0678972397784672  -7.3296268924834056 58.7577421468891075 0.0000000000000000 16.0000000000000000 21
1.1115603666896710  -7.5839950024811031 62.4521334997098023 0.0000000000000000 16.0000000000000000 22
1.1548620982454607  -7.8315955384509515 66.1577096937736684 0.0000000000000000 16.0000000000000000 23
1.1978465737088018  -8.0719099203007527 69.8533426657396888 0.0000000000000000 16.0000000000000000 24
1.2405623678228279  -8.3043017399837780 73.5159601770284041 0.0000000000000000 16.0000000000000000 25
1.2830617437567025  -8.5280574010009413 77.1213025813383837 0.0000000000000000 16.0000000000000000 26
1.3253993920413429  -8.7424360719154386 80.6448810471100614 0.0000000000000000 16.0000000000000000 27
1.3676307988550691  -8.9467233751105724 84.0630330434022284 0.0000000000000000 16.0000000000000000 28
1.4098104337216915  -9.1402828441895991 87.3539583868842726 0.0000000000000000 16.0000000000000000 29
1.4519899601267949  -9.3225997752494791 90.4986262046562047 0.0000000000000000 16.0000000000000000 30
1.4942166525013048  -9.4933135005640441 93.4814673829479261 0.0000000000000000 16.0000000000000000 31
1.5365321568547197  -9.6522359876984041 96.2908022894640681 0.0000000000000000 16.0000000000000000 32
1.5789716722344487  -9.7993566069500702 98.9189918658777856 0.0000000000000000 16.0000000000000000 33
1.6215635692300212  -9.9348345574197516 101.3623342042250925 0.0000000000000000 16.0000000000000000 34
1.6643294105352955  -10.0589815675287575 103.6207533421668074 0.0000000000000000 16.0000000000000000 35
1.7072843033132701  -10.1722380158196124 105.6973401507154762 0.0000000000000000 16.0000000000000000 36
1.7504374953003883  -10.2751456128406584 107.5978075100464650 0.0000000000000000 16.0000000000000000 37
1.7937931241300868  -10.3683193884783940 109.3299159792873922 0.0000000000000000 16.0000000000000000 38
1.8373510380956644  -10.4524211121047728 110.9029151139288984 0.0000000000000000 16.0000000000000000 39
1.8811076218358775  -10.5281355895648030 112.3270325555226350 0.0000000000000000 16.0000000000000000 40
1.9250565780961093  -10.5961506446207530 113.6130303892166040 0.0000000000000000 16.0000000000000000 41
1.9691896337762314  -10.6571410692005148 114.7718375187891127 0.0000000000000000 16.0000000000000000 42
2.0134971531054808  -10.7117564419495004 115.8142586120008133 0.0000000000000000 16.0000000000000000 43
2.0579686521890168  -10.7606124643328833 116.7507545778190803 0.0000000000000000 16.0000000000000000 44
2.1025932172862496  -10.8042853273160269 117.5912862351025865 0.0000000000000000 16.0000000000000000 45
2.1473598343803988  -10.8433085722429716 118.3452113327926440 0.0000000000000000 16.0000000000000000 46
2.1922576404545264  -10.8781719198436697 119.0212248698419586 0.0000000000000000 16.0000000000000000 47
2.2372761080105179  -10.9093215881017596 119.6273332801516176 0.0000000000000000 16.0000000000000000 48
2.2824051743049827  -10.9371616850816515 120.1708541277387923 0.0000000000000000 16.0000000000000000 49
2.3276353259791058  -10.9620563341190902 120.6584342335613655 0.0000000000000000 16.0000000000000000 50
2.3729576485675610  -10.9843322579197462 121.0960804496707510 0.0000000000000000 16.0000000000000000 51
2.4183638490228656  -11.0042816104867569 121.4891985011149416 0.0000000000000000 16.0000000000000000 52
2.4638462580421683  -11.0221648992945536 121.8426363755129103 0.0000000000000000 16.0000000000000000 53
2.5093978177262666  -11.0382138842606548 122.1607296339082893 0.0000000000000000 16.0000000000000000 54
2.5550120589839644  -11.0526343753316745 122.4473467459260689 0.0000000000000000 16.0000000000000000 55
2.6006830721366940  -11.0656088778945225 122.7059331312802328 0.0000000000000000 16.0000000000000000 56
2.6464054733779063  -11.0772990559488740 122.9395530381243162 0.0000000000000000 16.0000000000000000 57
2.6921743690873932  -11.0878479982417524 123.1509287279486387 0.0000000000000000 16.0000000000000000 58
2.7379853194755404  -11.0973822834823803 123.3424766872766725 0.0000000000000000 16.0000000000000000 59
2.7838343026177759  -11.1060138482948219 123.5163407666843227 0.0000000000000000 16.0000000000000000 60
2.8297176796169312  -11.1138416665352864 123.6744222734174059 0.0000000000000000 16.0000000000000000 61
2.8756321613838516  -11.1209532516589320 123.8184071281446847 0.0000000000000000 16.0000000000000000 62
2.9215747773397989  -11.1274259954857726 123.9497902496625841 0.0000000000000000 16.0000000000000000 63
2.9675428462054243  -11.1333283573892405 124.0698973619470564 0.0000000000000000 16.0000000000000000 64
3.0135339489397182  -11.1387209179240223 124.1799044322772261 0.0000000000000000 16.0000000000000000 65
3.0595459038202169  -11.1436573104465886 124.2808549521096495 0.0000000000000000 16.0000000000000000 66
3.1055767436056616  -11.1481850435363086 124.3736752676713451 0.0000000000000000 16.0000000000000000 67
3.1516246946891484  -11.1523462261149646 124.4591881575635455 0.0000000000000000 16.0000000000000000 68
3.1976881581290768  -11.1561782061768966 124.5381248420314790 0.0000000000000000 16.0000000000000000 69
3.2437656924338043  -11.1597141330382925 124.6111355943443897 0.0000000000000000 16.0000000000000000 70
3.2898559979711148  -11.1629834520333802 124.6787991099690203 0.0000000000000000 16.0000000000000000 71
3.3359579028735826  -11.1660123396517967 124.7416307745530162 0.0000000000000000 16.0000000000000000 72
3.3820703503141569  -11.1688240862400239 124.8000899576133378 0.0000000000000000 16.0000000000000000 73
3.4281923870316819  -11.1714394325887199 124.8545864455259249 0.0000000000000000 16.0000000000000000 74
3.4743231529928074  -11.1738768659987500 124.9054861150731881 0.0000000000000000 16.0000000000000000 75
3.5204618720842595  -11.1761528807609771 124.9531159375049754 0.0000000000000000 16.0000000000000000 76
3.5666078437372333  -11.1782822073964496 124.9977683928137964 0.0000000000000000 16.0000000000000000 77
3.6127604353935538  -11.1802780144779348 125.0397053646746883 0.0000000000000000 16.0000000000000000 78
3.6589190757308496  -11.1821520863891575 125.0791615782312789 0.0000000000000000 16.0000000000000000 79
3.7050832485713561  -11.1839149799655537 125.1163476355194746 0.0000000000000000 16.0000000000000000 80
3.7512524874058508  -11.1855761625978456 125.1514526967655314 0.0000000000000000 16.0000000000000000 81
3.7974263704706899  -11.1871441340605244 125.1846468499936122 0.0000000000000000 16.0000000000000000 82
3.8436045163218870  -11.1886265340463922 125.2160832062409952 0.0000000000000000 16.0000000000000000 83
3.8897865798556941  -11.1900302371428797 125.2458997531599465 0.0000000000000000 16.0000000000000000 84
3.9359722487300930  -11.1913614367705474 125.2742209958090029 0.0000000000000000 16.0000000000000000 85
3.9821612401463220  -11.1926257194146093 125.3011594099211834 0.0000000000000000 16.0000000000000000 86
4.0283532979535366  -11.1938281303168257 125.3268167298809317 0.0000000000000000 16.0000000000000000 87
4.0745481900436289  -11.1949732316493868 125.3512850909241791 0.0000000000000000 16.0000000000000000 88
4.1207457060064980  -11.1960651540673624 125.3746480427201107 0.0000000000000000 16.0000000000000000 89
4.1669456550191848  -11.1971076424252693 125.3969814494078321 0.0000000000000000 16.0000000000000000 90
4.2131478639450135  -11.1981040963473077 125.4183542893447765 0.0000000000000000 16.0000000000000000 91
4.2593521756213351  -11.1990576062564990 125.4388293662249794 0.0000000000000000 16.0000000000000000 92
4.3055584473167237  -11.1999709853938842 125.4584639418203693 0.0000000000000000 16.0000000000000000 93
4.3517665493404127  -11.2008467982949860 125.4773102993795106 0.0000000000000000 16.0000000000000000 94
4.3979763637885796  -11.2016873861338677 125.4954162456297126 0.0000000000000000 16.0000000000000000 95
4.4441877834136667  -11.2024948892958580 125.5128255583926773 0.0000000000000000 16.0000000000000000 96
4.4904007106043355  -11.2032712674969090 125.5295783859863690 0.0000000000000000 16.0000000000000000 97
4.5366150564649841  -11.2040183177293660 125.5457116038652003 0.0000000000000000 16.0000000000000000 98
4.5828307399848205  -11.2047376902808864 125.5612591333029400 0.0000000000000000 16.0000000000000000 99
4.6290476872875939  -11.2054309030440482 125.5762522263664636 0.0000000000000000 16.0000000000000000 100
4.6752658309539470  -11.2060993543085239 125.5907197209314319 0.0000000000000000 16.0000000000000000 101
4.7214851094091772  -11.2067443342053767 125.6046882690577746 0.0000000000000000 16.0000000000000000 102
4.7677054663699723  -11.2073670349531795 125.6181825416565658 0.0000000000000000 16.0000000000000000 103
4.8139268503442736  -11.2079685600383865 125.6312254120509806 0.0000000000000000 16.0000000000000000 104
4.8601492141790921  -11.2085499324469318 125.6438381207250075 0.0000000000000000 16.0000000000000000 105
4.9063725146515331  -11.2091121020510105 125.6560404233064077 0.0000000000000000 16.0000000000000000 106
4.9525967120988730  -11.2096559522425636 125.6678507235864259 0.0000000000000000 16.0000000000000000 107
4.9988217700838371  -11.2101823058951311 125.6792861931837422 0.0000000000000000 16.0000000000000000 108
5.0450476550916985  -11.2106919307261990 125.6903628792768899 0.0000000000000000 16.0000000000000000 109
5.0912743362561095  -11.2111855441240991 125.7010958016719968 0.0000000000000000 16.0000000000000000 110
5.1375017851109037  -11.2116638174963974 125.7114990403285901 0.0000000000000000 16.0000000000000000 111
5.1837299753653765  -11.2121273801904238 125.7215858143480318 0.0000000000000000 16.0000000000000000 112
5.2299588827007693  -11.2125768230309326 125.7313685533135583 0.0000000000000000 16.0000000000000000 113
5.2761884845859841  -11.2130127015147494 125.7408589617762829 0.0000000000000000 16.0000000000000000 114
5.3224187601106534  -11.2134355386982580 125.7500680775943920 0.0000000000000000 16.0000000000000000 115
5.3686496898339140  -11.2138458278094948 125.7590063247572374 0.0000000000000000 16.0000000000000000 116
5.4148812556474573  -11.2142440346128396 125.7676835612557227 0.0000000000000000 16.0000000000000000 117
5.4611134406514141  -11.2146305995521285 125.7761091225027030 0.0000000000000000 16.0000000000000000 118
5.5073462290419597  -11.2150059396940662 125.7842918607521483 0.0000000000000000 16.0000000000000000 119
5.5535796060094631  -11.2153704504926548 125.7922401809173891 0.0000000000000000 16.0000000000000000 120
5.5998135576462325  -11.2157245073923058 125.7999620731500272 0.0000000000000000 16.0000000000000000 121
5.6460480708629524  -11.2160684672857478 125.8074651424967243 0.0000000000000000 16.0000000000000000 122
5.6922831333129773  -11.2164026698413792 125.8147566359260168 0.0000000000000000 16.0000000000000000 123
5.7385187333237768  -11.2167274387126081 125.8218434669802264 0.0000000000000000 16.0000000000000000 124
5.7847548598348704  -11.2170430826409113 125.8287322382818871 0.0000000000000000 16.0000000000000000 125
5.8309915023415950  -11.2173498964631424 125.8354292621085619 0.0000000000000000 16.0000000000000000 126
5.8772286508442377  -11.2176481620319457 125.8419405792140253 0.0000000000000000 16.0000000000000000 127
5.9234662958019904  -11.2179381490579768 125.8482719760682471 0.0000000000000000 16.0000000000000000 128
5.9697044280912728  -11.2182201158813140 125.8544290006649788 0.0000000000000000 16.0000000000000000 129
6.0159430389680564  -11.2184943101786807 125.8604169770312069 0.0000000000000000 16.0000000000000000 130
6.0621821200337820  -11.2187609696127009 125.8662410185613680 0.0000000000000000 16.0000000000000000 131
6.1084216632045658  -11.2190203224283991 125.8719060402832781 0.0000000000000000 16.0000000000000000 132
6.1546616606833604  -11.2192725880021236 125.8774167701584190 0.0000000000000000 16.0000000000000000 133
6.2009021049348316  -11.2195179773470315 125.8827777594992199 0.0000000000000000 16.0000000000000000 134
6.2471429886626701  -11.2197566935792281 125.8879933925904879 0.0000000000000000 16.0000000000000000 135
6.2933843047891243  -11.2199889323482296 125.8930678955803586 0.0000000000000000 16.0000000000000000 136
6.3396260464365461  -11.2202148822347674 125.8980053447111658 0.0000000000000000 16.0000000000000000 137
6.3858682069107697  -11.2204347251190537 125.9028096739464360 0.0000000000000000 16.0000000000000000 138
6.4321107796861359  -11.2206486365219931 125.9074846820472686 0.0000000000000000 16.0000000000000000 139
6.4783537583920205  -11.2208567859218427 125.9120340391469171 0.0000000000000000 16.0000000000000000 140
6.5245971368007298  -11.2210593370483274 125.9164612928675240 0.0000000000000000 16.0000000000000000 141
6.5708409088166251  -11.2212564481563373 125.9207698740167558 0.0000000000000000 16.0000000000000000 142
6.6170850684663529  -11.2214482722807816 125.9249631019007296 0.0000000000000000 16.0000000000000000 143
6.6633296098900985  -11.2216349574743752 125.9290441892875663 0.0000000000000000 16.0000000000000000 144
6.7095745273337606  -11.2218166470295806 125.9330162470465524 0.0000000000000000 16.0000000000000000 145
6.7558198151419244  -11.2219934796863292 125.9368822884947434 0.0000000000000000 16.0000000000000000 146
6.8020654677516159  -11.2221655898263553 125.9406452334695530 0.0000000000000000 16.0000000000000000 147
6.8483114796867071  -11.2223331076554995 125.9443079121548550 0.0000000000000000 16.0000000000000000 148
6.8945578455529439  -11.2224961593748667 125.9478730686762304 0.0000000000000000 16.0000000000000000 149
6.9408045600335218  -11.2226548673416442 125.9513433644849130 0.0000000000000000 16.0000000000000000 150
6.9870516178851627  -11.2228093502204906 125.9547213815479978 0.0000000000000000 16.0000000000000000 151
7.0332990139346050  -11.2229597231263938 125.9580096253598924 0.0000000000000000 16.0000000000000000 152
7.0795467430755465  -11.2231060977592065 125.9612105277848855 0.0000000000000000 16.0000000000000000 153
7.1257948002659219  -11.2232485825308927 125.9643264497486541 0.0000000000000000 16.0000000000000000 154
7.1720431805254892  -11.2233872826859624 125.9673596837871656 0.0000000000000000 16.0000000000000000 155
7.2182918789337336  -11.2235223004154516 125.9703124564639580 0.0000000000000000 16.0000000000000000 156
7.2645408906280142  -11.2236537349650618 125.9731869306646672 0.0000000000000000 16.0000000000000000 157
7.3107902108019456  -11.2237816827378083 125.9759852077789617 0.0000000000000000 16.0000000000000000 158
7.3570398347039934  -11.2239062373915477 125.9787093297757110 0.0000000000000000 16.0000000000000000 159
7.4032897576362373  -11.2240274899318990 125.9813612811812220 0.0000000000000000 16.0000000000000000 160
7.4495399749533222  -11.2241455288006016 125.9839429909647492 0.0000000000000000 16.0000000000000000 161
7.4957904820615173  -11.2242604399599557 125.9864563343389676 0.0000000000000000 16.0000000000000000 162
7.5420412744179490  -11.2243723069731924 125.9889031344802675 0.0000000000000000 16.0000000000000000 163
7.5882923475298982  -11.2244812110815531 125.9912851641746556 0.0000000000000000 16.0000000000000000 164
7.6345436969542257  -11.2245872312777912 125.9936041473932562 0.0000000000000000 16.0000000000000000 165
7.6807953182968900  -11.2246904443765825 125.9958617608015459 0.0000000000000000 16.0000000000000000 166
7.7270472072125003  -11.2247909250821163 125.9980596352082500 0.0000000000000000 16.0000000000000000 167
7.7732993594039757  -11.2248887460527591 126.0001993569551502 0.0000000000000000 16.0000000000000000 168
7.8195517706222368  -11.2249839779632019 126.0022824692516252 0.0000000000000000 16.0000000000000000 169
7.8658044366659556  -11.2250766895641707 126.0043104734600092 0.0000000000000000 16.0000000000000000 170
7.9120573533813205  -11.2251669477398153 126.0062848303296335 0.0000000000000000 16.0000000000000000 171
7.9583105166618759  -11.2252548175628686 126.0082069611867013 0.0000000000000000 16.0000000000000000 172
8.0045639224483516  -11.2253403623478292 126.0100782490796121 0.0000000000000000 16.0000000000000000 173
8.0508175667285258  -11.2254236437021699 126.0119000398848499 0.0000000000000000 16.0000000000000000 174
8.0970714455371109  -11.2255047215756800 126.0136736433711633 0.0000000000000000 16.0000000000000000 175
8.1433255549556449  -11.2255836543080783 126.0154003342289002 0.0000000000000000 16.0000000000000000 176
8.1895798911123965  -11.2256604986749675 126.0170813530637730 0.0000000000000000 16.0000000000000000 177
8.2358344501822760  -11.2257353099321975 126.0187179073559349 0.0000000000000000 16.0000000000000000 178
8.2820892283867309  -11.2258081418587690 126.0203111723885314 0.0000000000000000 16.0000000000000000 179
8.3283442219936834  -11.2258790467982497 126.0218622921446752 0.0000000000000000 16.0000000000000000 180
8.3745994273174063  -11.2259480756989003 126.0233723801767951 0.0000000000000000 16.0000000000000000 181
8.4208548407184676  -11.2260152781523885 126.0248425204466400 0.0000000000000000 16.0000000000000000 182
8.4671104586035959  -11.2260807024313998 126.0262737681397027 0.0000000000000000 16.0000000000000000 183
8.5133662774255914  -11.2261443955259672 126.0276671504543060 0.0000000000000000 16.0000000000000000 184
8.5596222936832049  -11.2262064031786846 126.0290236673654505 0.0000000000000000 16.0000000000000000 185
8.6058785039210193  -11.2262667699188370 126.0303442923666779 0.0000000000000000 16.0000000000000000 186
8.6521349047293139  -11.2263255390954590 126.0316299731881884 0.0000000000000000 16.0000000000000000 187
8.6983914927439105  -11.2263827529094833 126.0328816324945365 0.0000000000000000 16.0000000000000000 188
8.7446482646460364  -11.2264384524447856 126.0341001685608404 0.0000000000000000 16.0000000000000000 189
8.7909052171621358  -11.2264926776984275 126.0352864559295085 0.0000000000000000 16.0000000000000000 190
8.8371623470637104  -11.2265454676099310 126.0364413460477948 0.0000000000000000 16.0000000000000000 191
