 # inv_tmp, energy, phys_var, phys_doublon, phys_num, step_i
0.0608355728452864  -0.8755020534825338 6.8408090213176500 0.0000000000000000 16.0000000000000000 1
0.1203155034380612  -1.2459233074581473 7.7488267804157456 0.0000000000000000 16.0000000000000000 2
0.1784691075484995  -1.6192637617660635 8.9214325714117511 0.0000000000000000 16.0000000000000000 3
0.2353336965893395  -1.9942818047009565 10.3600320326015165 0.0000000000000000 16.0000000000000000 4
0.2909532308305129  -2.3697850388375050 12.0628885925557352 0.0000000000000000 16.0000000000000000 5
0.3453769893073138  -2.7446424385919124 14.0250557295930793 0.0000000000000000 16.0000000000000000 6
0.3986584726744946  -3.1177786491722888 16.2382997060046073 0.0000000000000000 16.0000000000000000 7
0.4508546751064478  -3.4881536854915884 18.6909929153761531 0.0000000000000000 16.0000000000000000 8
0.5020257562918807  -3.8547340936322234 21.3679977050004446 0.0000000000000000 16.0000000000000000 9
0.5522350315015864  -4.2164637502583808 24.2505992025887842 0.0000000000000000 16.0000000000000000 10
0.6015491013023937  -4.5722431508392916 27.3165707914291644 0.0000000000000000 16.0000000000000000 11
0.6500378889185805  -4.9209247785956141 30.5404571920648351 0.0000000000000000 16.0000000000000000 12
0.6977743607978194  -5.2613289635236651 33.8941334599724087 0.0000000000000000 16.0000000000000000 13
0.7448337766362298  -5.5922801547102061 37.3476479817556424 0.0000000000000000 16.0000000000000000 14
0.7912924315331693  -5.9126588407694918 40.8702963386607365 0.0000000000000000 16.0000000000000000 15
0.8372259826623705  -6.2214607079444821 44.4318179005849885 0.0000000000000000 16.0000000000000000 16
0.8827075592999576  -6.5178529874199018 48.0035742048682934 0.0000000000000000 16.0000000000000000 17
0.9278059102551193  -6.8012186623181368 51.5595666932060155 0.0000000000000000 16.0000000000000000 18
0.9725838362368331  -7.0711819219938654 55.0771805271242698 0.0000000000000000 16.0000000000000000 19
1.0170970950286755  -7.3276120790338730 58.5375914058162152 0.0000000000000000 16.0000000000000000 20
1.0613938764605646  -7.5706070399215104 61.9258293017178403 0.0000000000000000 16.0000000000000000 21
1.1055148480051333  -7.8004604636442556 65.2305430697615236 0.0000000000000000 16.0000000000000000 22
1.1494936918121239  -8.0176184764294973 68.4435437501142161 0.0000000000000000 16.0000000000000000 23
1.1933580022976460  -8.2226321921691774 71.5592188664087701 0.0000000000000000 16.0000000000000000 24
1.2371303925401573  -8.4161115930041230 74.5739071121275146 0.0000000000000000 16.0000000000000000 25
1.2808296631243590  -8.5986849751395749 77.4853075856081261 0.0000000000000000 16.0000000000000000 26
1.3244719106171683  -8.7709665770393386 80.2919760879440076 0.0000000000000000 16.0000000000000000 27
1.3680714859820713  -8.9335334986536505 82.9929380818782647 0.0000000000000000 16.0000000000000000 28
1.4116417487546005  -9.0869117828015664 85.5874273448054623 0.0000000000000000 16.0000000000000000 29
1.4551955956301537  -9.2315706425827724 88.0747431558868072 0.0000000000000000 16.0000000000000000 30
1.4987457692221984  -9.3679232817291194 90.4542077557872517 0.0000000000000000 16.0000000000000000 31
1.5423049727441880  -9.4963325224363757 92.7251996383062078 0.0000000000000000 16.0000000000000000 32
1.5858858290404647  -9.6171194618297946 94.8872362864725289 0.0000000000000000 16.0000000000000000 33
1.6295007283146952  -9.7305735544707197 96.9400813118390374 0.0000000000000000 16.0000000000000000 34
1.6731616091475221  -9.8369627998248657 98.8838545839541609 0.0000000000000000 16.0000000000000000 35
1.7168797133014062  -9.9365430450281451 100.7191288798587294 0.0000000000000000 16.0000000000000000 36
1.7606653478212344  -10.0295657500004545 102.4470019920324972 0.0000000000000000 16.0000000000000000 37
1.8045276794424070  -10.1162838707377105 104.0691384262638053 0.0000000000000000 16.0000000000000000 38
1.8484745775252496  -10.1969557755167664 105.5877793118608992 0.0000000000000000 16.0000000000000000 39
1.8925125135932064  -10.2718473063665634 107.0057226480973611 0.0000000000000000 16.0000000000000000 40
1.9366465187026727  -10.3412322321630654 108.3262784177790365 0.0000000000000000 16.0000000000000000 41
1.9808801946503798  -10.4053914148128417 109.5532044544852113 0.0000000000000000 16.0000000000000000 42
2.0252157715013452  -10.4646110356162012 110.6906294014061132 0.0000000000000000 16.0000000000000000 43
2.0696542019672095  -10.5191802168477615 111.7429688515254043 0.0000000000000000 16.0000000000000000 44
2.1141952825240553  -10.5693883360445859 112.7148400325475421 0.0000000000000000 16.0000000000000000 45
2.1588377915134309  -10.6155222785424499 113.6109794022185753 0.0000000000000000 16.0000000000000000 46
2.2035796354981869  -10.6578638165479394 114.4361664229005271 0.0000000000000000 16.0000000000000000 47
2.2484179965568925  -10.6966872472152801 115.1951557174315042 0.0000000000000000 16.0000000000000000 48
2.2933494747622563  -10.7322573722259822 115.8926188566089763 0.0000000000000000 16.0000000000000000 49
2.3383702216268238  -10.7648278596488254 116.5330962386128277 0.0000000000000000 16.0000000000000000 50
2.3834760616986781  -10.7946399962186668 117.1209589084090084 0.0000000000000000 16.0000000000000000 51
2.4286626006865393  -10.8219218143356262 117.6603797250517260 0.0000000000000000 16.0000000000000000 52
2.4739253194620177  -10.8468875620913572 118.1553129978102135 0.0000000000000000 16.0000000000000000 53
2.5192596540288972  -10.8697374751674563 118.6094815523302088 0.0000000000000000 16.0000000000000000 54
2.5646610620847681  -10.8906578051225686 119.0263701278803410 0.0000000000000000 16.0000000000000000 55
2.6101250771582225  -10.9098210580544919 119.4092240197496011 0.0000000000000000 16.0000000000000000 56
2.6556473515174401  -10.9273863997267036 119.7610519439685959 0.0000000000000000 16.0000000000000000 57
2.7012236891455546  -10.9435001870181630 120.0846321956550753 0.0000000000000000 16.0000000000000000 58
2.7468500700934819  -10.9582965902409679 120.3825212825972955 0.0000000000000000 16.0000000000000000 59
2.7925226674769443  -10.9718982759128298 120.6570643312157216 0.0000000000000000 16.0000000000000000 60
2.8382378583014027  -10.9844171245792701 120.9104066751163202 0.0000000000000000 16.0000000000000000 61
2.8839922291925704  -10.9959549629980096 121.1445061421226370 0.0000000000000000 16.0000000000000000 62
2.9297825779930227  -11.0066042942726749 121.3611456510697622 0.0000000000000000 16.0000000000000000 63
2.9756059120657916  -11.0164490132824646 121.5619458134285651 0.0000000000000000 16.0000000000000000 64
3.0214594440298099  -11.0255650979763455 121.7483773067479547 0.0000000000000000 16.0000000000000000 65
3.0673405855432736  -11.0340212698032545 121.9217728474084623 0.0000000000000000 16.0000000000000000 66
3.1132469396518254  -11.0418796187706505 122.0833386401584306 0.0000000000000000 16.0000000000000000 67
3.1591762921298141  -11.0491961904136744 122.2341652224916402 0.0000000000000000 16.0000000000000000 68
3.2051266021650942  -11.0560215333708349 122.3752376542880143 0.0000000000000000 16.0000000000000000 69
3.2510959926704501  -11.0624012073553093 122.5074450285203369 0.0000000000000000 16.0000000000000000 70
3.2970827404471823  -11.0683762521351152 122.6315892982991897 0.0000000000000000 16.0000000000000000 71
3.3430852663777091  -11.0739836187386587 122.7483934301550903 0.0000000000000000 16.0000000000000000 72
3.3891021257833707  -11.0792565645253234 122.8585089040939664 0.0000000000000000 16.0000000000000000 73
3.4351319990498523  -11.0842250140420742 122.9625225884317956 0.0000000000000000 16.0000000000000000 74
3.4811736825950170  -11.0889158877541334 123.0609630223410988 0.0000000000000000 16.0000000000000000 75
3.5272260802314075  -11.0933534008196819 123.1543061419987168 0.0000000000000000 16.0000000000000000 76
3.5732881949576054  -11.0975593340931482 123.2429804876637860 0.0000000000000000 16.0000000000000000 77
3.6193591211982046  -11.1015532795086429 123.3273719293075885 0.0000000000000000 16.0000000000000000 78
3.6654380375008460  -11.1053528619261392 123.4078279478574984 0.0000000000000000 16.0000000000000000 79
3.7115241996899191  -11.1089739394309426 123.4846615079611354 0.0000000000000000 16.0000000000000000 80
3.7576169344699162  -11.1124307839679233 123.5581545565908215 0.0000000000000000 16.0000000000000000 81
3.8037156334663420  -11.1157362440751442 123.6285611799603288 0.0000000000000000 16.0000000000000000 82
3.8498197476885179  -11.1189018913596058 123.6961104492153680 0.0000000000000000 16.0000000000000000 83
3.8959287823960684  -11.1219381522361633 123.7610089832757723 0.0000000000000000 16.0000000000000000 84
3.9420422923492753  -11.1248544263303266 123.8234432551169562 0.0000000000000000 16.0000000000000000 85
3.9881598774225098  -11.1276591928308335 123.8835816657237672 0.0000000000000000 16.0000000000000000 86
4.0342811785595662  -11.1303601059672364 123.9415764079691513 0.0000000000000000 16.0000000000000000 87
4.0804058740497435  -11.1329640806841077 123.9975651407728634 0.0000000000000000 16.0000000000000000 88
4.1265336761038238  -11.1354773694863987 124.0516724921219520 0.0000000000000000 16.0000000000000000 89
4.1726643277096942  -11.1379056313401001 124.1040114078491854 0.0000000000000000 16.0000000000000000 90
4.2187975997480489  -11.1402539934291323 124.1546843615284246 0.0000000000000000 16.0000000000000000 91
4.2649332883494848  -11.1425271064925386 124.2037844393972534 0.0000000000000000 16.0000000000000000 92
4.3110712124752091  -11.1447291943961577 124.2513963129035943 0.0000000000000000 16.0000000000000000 93
4.3572112117045343  -11.1468640985284448 124.2975971102569730 0.0000000000000000 16.0000000000000000 94
4.4033531442133320  -11.1489353175519383 124.3424571972584260 0.0000000000000000 16.0000000000000000 95
4.4494968849285579  -11.1509460429890428 124.3860408766765602 0.0000000000000000 16.0000000000000000 96
4.4956423238449927  -11.1528991910720787 124.4284070145150167 0.0000000000000000 16.0000000000000000 97
4.5417893644911693  -11.1547974312451341 124.4696096006909158 0.0000000000000000 16.0000000000000000 98
4.5879379225324710  -11.1566432116647007 124.5096982508815984 0.0000000000000000 16.0000000000000000 99
4.6340879245001600  -11.1584387820117392 124.5487186556237162 0.0000000000000000 16.0000000000000000 100
4.6802393066359658  -11.1601862138951926 124.5867129821266133 0.0000000000000000 16.0000000000000000 101
4.7263920138425979  -11.1618874190984094 124.6237202337100314 0.0000000000000000 16.0000000000000000 102
4.7725459987313172  -11.1635441658940184 124.6597765712744206 0.0000000000000000 16.0000000000000000 103
4.8187012207583448  -11.1651580936296231 124.6949156007582502 0.0000000000000000 16.0000000000000000 104
4.8648576454425374  -11.1667307257655875 124.7291686301378348 0.0000000000000000 16.0000000000000000 105
4.9110152436573893  -11.1682634815274699 124.7625648991525225 0.0000000000000000 16.0000000000000000 106
4.9571739909909169  -11.1697576863188459 124.7951317846131190 0.0000000000000000 16.0000000000000000 107
5.0033338671675427  -11.1712145810250743 124.8268949838582955 0.0000000000000000 16.0000000000000000 108
5.0494948555265502  -11.1726353303250256 124.8578786786559220 0.0000000000000000 16.0000000000000000 109
5.0956569425521536  -11.1740210301153553 124.8881056816082946 0.0000000000000000 16.0000000000000000 110
5.1418201174505880  -11.1753727141415098 124.9175975669099046 0.0000000000000000 16.0000000000000000 111
5.1879843717700496  -11.1766913599192534 124.9463747871101020 0.0000000000000000 16.0000000000000000 112
5.2341496990596532  -11.1779778940220709 124.9744567773652051 0.0000000000000000 16.0000000000000000 113
5.2803160945638572  -11.1792331968020822 125.0018620485083716 0.0000000000000000 16.0000000000000000 114
5.3264835549491734  -11.1804581066043873 125.0286082701246642 0.0000000000000000 16.0000000000000000 115
5.3726520780602085  -11.1816534235292266 125.0547123447009028 0.0000000000000000 16.0000000000000000 116
5.4188216627022978  -11.1828199127902597 125.0801904738013661 0.0000000000000000 16.0000000000000000 117
5.4649923084483314  -11.1839583077120892 125.1050582171259862 0.0000000000000000 16.0000000000000000 118
5.5111640154674628  -11.1850693124059717 125.1293305452151117 0.0000000000000000 16.0000000000000000 119
5.5573367843736730  -11.1861536041581893 125.1530218864850781 0.0000000000000000 16.0000000000000000 120
5.6035106160923052  -11.1872118355621968 125.1761461692081951 0.0000000000000000 16.0000000000000000 121
5.6496855117428195  -11.1882446364223682 125.1987168589862733 0.0000000000000000 16.0000000000000000 122
5.6958614725362775  -11.1892526154538139 125.2207469922038996 0.0000000000000000 16.0000000000000000 123
5.7420384996860294  -11.1902363618008547 125.2422492059058925 0.0000000000000000 16.0000000000000000 124
5.7882165943303887  -11.1911964463937466 125.2632357644867653 0.0000000000000000 16.0000000000000000 125
5.8343957574660408  -11.1921334231613940 125.2837185835435747 0.0000000000000000 16.0000000000000000 126
5.8805759898911614  -11.1930478301158871 125.3037092512068398 0.0000000000000000 16.0000000000000000 127
5.9267572921572169  -11.1939401903230848 125.3232190472262459 0.0000000000000000 16.0000000000000000 128
5.9729396645285542  -11.1948110127718881 125.3422589600661183 0.0000000000000000 16.0000000000000000 129
6.0191231069490181  -11.1956607931531735 125.3608397022268832 0.0000000000000000 16.0000000000000000 130
6.0653076190147734  -11.1964900145589557 125.3789717239969548 0.0000000000000000 16.0000000000000000 131
6.1114931999527187  -11.1972991481103925 125.3966652258112902 0.0000000000000000 16.0000000000000000 132
6.1576798486038697  -11.1980886535226674 125.4139301693731170 0.0000000000000000 16.0000000000000000 133
6.2038675634111495  -11.1988589796140374 125.4307762876805441 0.0000000000000000 16.0000000000000000 134
6.2500563424110629  -11.1996105647654112 125.4472130940869334 0.0000000000000000 16.0000000000000000 135
6.2962461832288659  -11.2003438373357724 125.4632498905008902 0.0000000000000000 16.0000000000000000 136
6.3424370830767298  -11.2010592160390878 125.4788957748311020 0.0000000000000000 16.0000000000000000 137
6.3886290387546047  -11.2017571102865734 125.4941596477601422 0.0000000000000000 16.0000000000000000 138
6.4348220466533927  -11.2024379204987667 125.5090502189296018 0.0000000000000000 16.0000000000000000 139
6.4810161027601527  -11.2031020383906821 125.5235760126023621 0.0000000000000000 16.0000000000000000 140
6.5272112026650584  -11.2037498472332970 125.5377453728685992 0.0000000000000000 16.0000000000000000 141
6.5734073415698511  -11.2043817220941513 125.5515664684449177 0.0000000000000000 16.0000000000000000 142
6.6196045142975795  -11.2049980300595120 125.5650472971202589 0.0000000000000000 16.0000000000000000 143
6.6658027153034105  -11.2055991304403531 125.5781956898887586 0.0000000000000000 16.0000000000000000 144
6.7120019386863552  -11.2061853749639351 125.5910193148076530 0.0000000000000000 16.0000000000000000 145
6.7582021782017128  -11.2067571079529564 125.6035256806153200 0.0000000000000000 16.0000000000000000 146
6.8044034272741216  -11.2073146664935326 125.6157221401367963 0.0000000000000000 16.0000000000000000 147
6.8506056790110756  -11.2078583805934748 125.6276158935056202 0.0000000000000000 16.0000000000000000 148
6.8968089262167878  -11.2083885733320550 125.6392139912213253 0.0000000000000000 16.0000000000000000 149
6.9430131614062995  -11.2089055610021866 125.6505233370664882 0.0000000000000000 16.0000000000000000 150
6.9892183768197516  -11.2094096532460448 125.6615506908978830 0.0000000000000000 16.0000000000000000 151
7.0354245644367222  -11.2099011531849406 125.6723026713286799 0.0000000000000000 16.0000000000000000 152
7.0816317159906044  -11.2103803575438583 125.6827857583146937 0.0000000000000000 16.0000000000000000 153
7.1278398229828710  -11.2108475567717853 125.6930062956570566 0.0000000000000000 16.0000000000000000 154
7.1740488766972854  -11.2113030351578224 125.7029704934291061 0.0000000000000000 16.0000000000000000 155
7.2202588682139206  -11.2117470709439573 125.7126844303404880 0.0000000000000000 16.0000000000000000 156
7.2664697884229890  -11.2121799364345947 125.7221540560416031 0.0000000000000000 16.0000000000000000 157
7.3126816280384421  -11.2126018981034239 125.7313851933774913 0.0000000000000000 16.0000000000000000 158
7.3588943776112963  -11.2130132166977923 125.7403835405974064 0.0000000000000000 16.0000000000000000 159
7.4051080275426777  -11.2134141473408420 125.7491546735212893 0.0000000000000000 16.0000000000000000 160
7.4513225680965531  -11.2138049396317001 125.7577040476722345 0.0000000000000000 16.0000000000000000 161
7.4975379894121224  -11.2141858377438695 125.7660370003730179 0.0000000000000000 16.0000000000000000 162
7.5437542815158727  -11.2145570805220114 125.7741587528154668 0.0000000000000000 16.0000000000000000 163
7.5899714343332878  -11.2149189015771178 125.7820744120983960 0.0000000000000000 16.0000000000000000 164
7.6361894377001738  -11.2152715293804484 125.7897889732420538 0.0000000000000000 16.0000000000000000 165
7.6824082813736290  -11.2156151873560397 125.7973073211778683 0.0000000000000000 16.0000000000000000 166
7.7286279550426347  -11.2159500939720811 125.8046342327133971 0.0000000000000000 16.0000000000000000 167
7.7748484483382603  -11.2162764628311429 125.8117743784782476 0.0000000000000000 16.0000000000000000 168
7.8210697508435123  -11.2165945027592020 125.8187323248451719 0.0000000000000000 16.0000000000000000 169
7.8672918521027766  -11.2169044178937494 125.8255125358344344 0.0000000000000000 16.0000000000000000 170
7.9135147416309213  -11.2172064077707301 125.8321193749939653 0.0000000000000000 16.0000000000000000 171
7.9597384089219894  -11.2175006674106221 125.8385571072631848 0.0000000000000000 16.0000000000000000 172
8.0059628434575565  -11.2177873874033676 125.8448299008153128 0.0000000000000000 16.0000000000000000 173
8.0521880347147192  -11.2180667539924492 125.8509418288792574 0.0000000000000000 16.0000000000000000 174
8.0984139721736987  -11.2183389491580066 125.8568968715442082 0.0000000000000000 16.0000000000000000 175
8.1446406453251470  -11.2186041506988587 125.8626989175425024 0.0000000000000000 16.0000000000000000 176
8.1908680436770549  -11.2188625323137163 125.8683517660132196 0.0000000000000000 16.0000000000000000 177
8.2370961567613783  -11.2191142636812948 125.8738591282465649 0.0000000000000000 16.0000000000000000 178
8.2833249741402781  -11.2193595105396238 125.8792246294068917 0.0000000000000000 16.0000000000000000 179
8.3295544854121015  -11.2195984347642010 125.8844518102362287 0.0000000000000000 16.0000000000000000 180
8.3757846802170164  -11.2198311944452485 125.8895441287366594 0.0000000000000000 16.0000000000000000 181
8.4220155482423316  -11.2200579439640808 125.8945049618322116 0.0000000000000000 16.0000000000000000 182
8.4682470792275666  -11.2202788340683064 125.8993376070101391 0.0000000000000000 16.0000000000000000 183
8.5144792629692052  -11.2204940119461263 125.9040452839395670 0.0000000000000000 16.0000000000000000 184
8.5607120893251736  -11.2207036212996236 125.9086311360701984 0.0000000000000000 16.0000000000000000 185
8.6069455482190502  -11.2209078024171127 125.9130982322090517 0.0000000000000000 16.0000000000000000 186
8.6531796296440628  -11.2211066922441756 125.9174495680735788 0.0000000000000000 16.0000000000000000 187
8.6994143236667494  -11.2213004244541281 125.9216880678260111 0.0000000000000000 16.0000000000000000 188
8.7456496204304521  -11.2214891295170816 125.9258165855829645 0.0000000000000000 16.0000000000000000 189
8.7918855101585578  -11.2216729347681010 125.9298379069031455 0.0000000000000000 16.0000000000000000 190
8.8381219831574924  -11.2218519644743999 125.9337547502534989 0.0000000000000000 16.0000000000000000 191
