 # inv_tmp, energy, phys_var, phys_doublon, phys_num, step_i
0.0608003577659295  -0.8945432804794203 6.7147637573855796 0.0000000000000000 16.0000000000000000 1
0.1202835922649935  -1.2547434332332494 7.5871194000923365 0.0000000000000000 16.0000000000000000 2
0.1784833008357091  -1.6165903023213404 8.7009356770131348 0.0000000000000000 16.0000000000000000 3
0.2354420253753874  -1.9786407598424554 10.0538095527039282 0.0000000000000000 16.0000000000000000 4
0.2912097009737827  -2.3395153614758559 11.6406701000372319 0.0000000000000000 16.0000000000000000 5
0.3458416286750025  -2.6979628969904921 13.4542113564963852 0.0000000000000000 16.0000000000000000 6
0.3993962225460913  -3.0529103924721421 15.4854811416200064 0.0000000000000000 16.0000000000000000 7
0.4519327633790085  -3.4034964855641050 17.7245422474712022 0.0000000000000000 16.0000000000000000 8
0.5035093568425490  -3.7490873910983296 20.1611162055528155 0.0000000000000000 16.0000000000000000 9
0.5541812533164510  -4.0892756301511248 22.7851244032773188 0.0000000000000000 16.0000000000000000 10
0.6039996459476348  -4.4238624105209237 25.5870545671354890 0.0000000000000000 16.0000000000000000 11
0.6530110243310999  -4.7528251526595078 28.5581003118460082 0.0000000000000000 16.0000000000000000 12
0.7012571224387519  -5.0762722659845050 31.6900457086005112 0.0000000000000000 16.0000000000000000 13
0.7487754586204394  -5.3943879672389690 34.9748942861706524 0.0000000000000000 16.0000000000000000 14
0.7956004206212763  -5.7073707132699862 38.4042714403149290 0.0000000000000000 16.0000000000000000 15
0.8417647991533155  -6.0153696521724642 41.9686595016877817 0.0000000000000000 16.0000000000000000 16
0.8873016219441403  -6.3184242642356558 45.6565533718016496 0.0000000000000000 16.0000000000000000 17
0.9322460922200921  -6.6164128768488641 49.4536479374269362 0.0000000000000000 16.0000000000000000 18
0.9766374005775814  -6.9090157488612238 53.3421813402746281 0.0000000000000000 16.0000000000000000 19
1.0205201683582172  -7.1956976845943359 57.3005551355527274 0.0000000000000000 16.0000000000000000 20
1.0639453038726465  -7.4757135043733083 61.3033293370055432 0.0000000000000000 16.0000000000000000 21
1.1069701145088258  -7.7481372110242210 65.3216468168822075 0.0000000000000000 16.0000000000000000 22
1.1496576131750549  -8.0119126536812875 69.3240822643097943 0.0000000000000000 16.0000000000000000 23
1.1920750717005579  -8.2659204436893940 73.2778460391265583 0.0000000000000000 16.0000000000000000 24
1.2342919842879507  -8.5090534788204515 77.1502162691977418 0.0000000000000000 16.0000000000000000 25
1.2763776871327064  -8.7402922537876560 80.9100364336224658 0.0000000000000000 16.0000000000000000 26
1.3183989182987073  -8.9587714693234570 84.5291087658447395 0.0000000000000000 16.0000000000000000 27
1.3604175889890746  -9.1638312039272858 87.9833369067582680 0.0000000000000000 16.0000000000000000 28
1.4024889806317877  -9.3550486320914867 91.2535175007562884 0.0000000000000000 16.0000000000000000 29
1.4446604986117941  -9.5322493123161518 94.3257379294518046 0.0000000000000000 16.0000000000000000 30
1.4869710235528424  -9.6954997898092596 97.1913931280198113 0.0000000000000000 16.0000000000000000 31
1.5294508227182215  -9.8450852092490173 99.8468781402387293 0.0000000000000000 16.0000000000000000 32
1.5721219286403600  -9.9814766257218306 102.2930393262956557 0.0000000000000000 16.0000000000000000 33
1.6149988630763736  -10.1052927990725596 104.5344755834900070 0.0000000000000000 16.0000000000000000 34
1.6580895791048351  -10.2172606849090801 106.5787749459074973 0.0000000000000000 16.0000000000000000 35
1.7013965062697780  -10.3181778819190164 108.4357566588605977 0.0000000000000000 16.0000000000000000 36
1.7449176057788955  -10.4088792243963368 110.1167694853522647 0.0000000000000000 16.0000000000000000 37
1.7886473683949839  -10.4902087146431029 111.6340777280930325 0.0000000000000000 16.0000000000000000 38
1.8325777121578051  -10.5629971828901859 113.0003498712311938 0.0000000000000000 16.0000000000000000 39
1.8766987577313943  -10.6280454816873391 114.2282520731771314 0.0000000000000000 16.0000000000000000 40
1.9209994749129793  -10.6861126569098026 115.3301401257276098 0.0000000000000000 16.0000000000000000 41
1.9654682047099734  -10.7379083511529689 116.3178384404486962 0.0000000000000000 16.0000000000000000 42
2.0100930680675164  -10.7840886405720298 117.2024923482798897 0.0000000000000000 16.0000000000000000 43
2.0548622757391177  -10.8252545384566456 117.9944796792104000 0.0000000000000000 16.0000000000000000 44
2.0997643548714304  -10.8619524810967398 118.7033685018649578 0.0000000000000000 16.0000000000000000 45
2.1447883074300620  -10.8946762164311970 119.3379094817262853 0.0000000000000000 16.0000000000000000 46
2.1899237142606691  -10.9238696251731930 119.9060531585799794 0.0000000000000000 16.0000000000000000 47
2.2351607968170457  -10.9499301064637820 120.4149842871852911 0.0000000000000000 16.0000000000000000 48
2.2804904467033342  -10.9732122498773492 120.8711670785424417 0.0000000000000000 16.0000000000000000 49
2.3259042313608882  -10.9940315906686887 121.2803966488551737 0.0000000000000000 16.0000000000000000 50
2.3713943825859949  -11.0126683056276207 121.6478532070633207 0.0000000000000000 16.0000000000000000 51
2.4169537731391322  -11.0293707541311843 121.9781564979902271 0.0000000000000000 16.0000000000000000 52
2.4625758855090525  -11.0443588048407122 122.2754187913465103 0.0000000000000000 16.0000000000000000 53
2.5082547759138314  -11.0578269149920736 122.5432952983691450 0.0000000000000000 16.0000000000000000 54
2.5539850358330085  -11.0699469482687718 122.7850313400387563 0.0000000000000000 16.0000000000000000 55
2.5997617527428494  -11.0808707304950751 123.0035059135180973 0.0000000000000000 16.0000000000000000 56
2.6455804712430049  -11.0907323512401081 123.2012715329165502 0.0000000000000000 16.0000000000000000 57
2.6914371553919629  -11.0996502250139013 123.3805903785657279 0.0000000000000000 16.0000000000000000 58
2.7373281527882889  -11.1077289289569450 123.5434668935078406 0.0000000000000000 16.0000000000000000 59
2.7832501607256441  -11.1150608354636038 123.6916770309222500 0.0000000000000000 16.0000000000000000 60
2.8292001945962602  -11.1217275585582733 123.8267943927091466 0.0000000000000000 16.0000000000000000 61
2.8751755586070971  -11.1278012324481637 123.9502135157593870 0.0000000000000000 16.0000000000000000 62
2.9211738187951801  -11.1333456397907646 124.0631705648551701 0.0000000000000000 16.0000000000000000 63
2.9671927782755225  -11.1384172060405255 124.1667616843194679 0.0000000000000000 16.0000000000000000 64
3.0132304546203343  -11.1430658749199232 124.2619592478598349 0.0000000000000000 16.0000000000000000 65
3.0592850592470291  -11.1473358786934007 124.3496262299679529 0.0000000000000000 16.0000000000000000 66
3.1053549786812309  -11.1512664155730601 124.4305289044584555 0.0000000000000000 16.0000000000000000 67
3.1514387575566793  -11.1548922452934605 124.5053480574379847 0.0000000000000000 16.0000000000000000 68
3.1975350832144875  -11.1582442126853394 124.5746888839819633 0.0000000000000000 16.0000000000000000 69
3.2436427717681942  -11.1613497079650212 124.6390897205557451 0.0000000000000000 16.0000000000000000 70
3.2897607555071056  -11.1642330714444853 124.6990297490646924 0.0000000000000000 16.0000000000000000 71
3.3358880715178421  -11.1669159494549302 124.7549357935036198 0.0000000000000000 16.0000000000000000 72
3.3820238514121077  -11.1694176074601401 124.8071883165571023 0.0000000000000000 16.0000000000000000 73
3.4281673120570373  -11.1717552056098732 124.8561267111914788 0.0000000000000000 16.0000000000000000 74
3.4743177472128446  -11.1739440413394853 124.9020539712067830 0.0000000000000000 16.0000000000000000 75
3.5204745199905099  -11.1759977630543244 124.9452408148250129 0.0000000000000000 16.0000000000000000 76
3.5666370560499794  -11.1779285584369834 124.9859293265888311 0.0000000000000000 16.0000000000000000 77
3.6128048374665616  -11.1797473204761388 125.0243361750381723 0.0000000000000000 16.0000000000000000 78
3.6589773971999646  -11.1814637939304120 125.0606554567234951 0.0000000000000000 16.0000000000000000 79
3.7051543141066237  -11.1830867046029514 125.0950612110232925 0.0000000000000000 16.0000000000000000 80
3.7513352084417000  -11.1846238735073236 125.1277096448604595 0.0000000000000000 16.0000000000000000 81
3.7975197378023364  -11.1860823177468180 125.1587411016879656 0.0000000000000000 16.0000000000000000 82
3.8437075934685403  -11.1874683397033667 125.1882818049605532 0.0000000000000000 16.0000000000000000 83
3.8898984971023500  -11.1887876059352180 125.2164454026585361 0.0000000000000000 16.0000000000000000 84
3.9360921977698680  -11.1900452170097786 125.2433343362237679 0.0000000000000000 16.0000000000000000 85
3.9822884692542528  -11.1912457693477343 125.2690410544631874 0.0000000000000000 16.0000000000000000 86
4.0284871076309754  -11.1923934100223157 125.2936490904963449 0.0000000000000000 16.0000000000000000 87
4.0746879290795031  -11.1934918853428496 125.3172340176645889 0.0000000000000000 16.0000000000000000 88
4.1208907679081133  -11.1945445839512239 125.3398642984197124 0.0000000000000000 16.0000000000000000 89
4.1670954747709716  -11.1955545750707799 125.3616020385336896 0.0000000000000000 16.0000000000000000 90
4.2133019150585627  -11.1965246424716014 125.3825036575144338 0.0000000000000000 16.0000000000000000 91
4.2595099674445605  -11.1974573146470391 125.4026204848216821 0.0000000000000000 16.0000000000000000 92
4.3057195225738338  -11.1983548916383224 125.4219992903477561 0.0000000000000000 16.0000000000000000 93
4.3519304818778402  -11.1992194688916022 125.4406827566335210 0.0000000000000000 16.0000000000000000 94
4.3981427565050097  -11.2000529584864488 125.4587098994183378 0.0000000000000000 16.0000000000000000 95
4.4443562663549523  -11.2008571080349437 125.4761164423535575 0.0000000000000000 16.0000000000000000 96
4.4905709392064255  -11.2016335175151962 125.4929351510296271 0.0000000000000000 16.0000000000000000 97
4.5367867099299648  -11.2023836542727153 125.5091961308785216 0.0000000000000000 16.0000000000000000 98
4.5830035197770327  -11.2031088663953060 125.5249270929801639 0.0000000000000000 16.0000000000000000 99
4.6292213157382545  -11.2038103946440124 125.5401535913446764 0.0000000000000000 16.0000000000000000 100
4.6754400499641129  -11.2044893831010661 125.5548992348327317 0.0000000000000000 16.0000000000000000 101
4.7216596792420757  -11.2051468886775485 125.5691858765144246 0.0000000000000000 16.0000000000000000 102
4.7678801645247209  -11.2057838896072166 125.5830337829536916 0.0000000000000000 16.0000000000000000 103
4.8141014705039664  -11.2064012930382688 125.5964617856186294 0.0000000000000000 16.0000000000000000 104
4.8603235652269694  -11.2069999418224633 125.6094874163758988 0.0000000000000000 16.0000000000000000 105
4.9065464197496960  -11.2075806205895461 125.6221270288025806 0.0000000000000000 16.0000000000000000 106
4.9527700078245527  -11.2081440611850720 125.6343959068597513 0.0000000000000000 16.0000000000000000 107
4.9989943056187967  -11.2086909475410224 125.6463083622949881 0.0000000000000000 16.0000000000000000 108
5.0452192914607759  -11.2092219200408696 125.6578778219937362 0.0000000000000000 16.0000000000000000 109
5.0914449456113369  -11.2097375794337069 125.6691169063621487 0.0000000000000000 16.0000000000000000 110
5.1376712500579913  -11.2102384903460255 125.6800374997021379 0.0000000000000000 16.0000000000000000 111
5.1838981883296071  -11.2107251844347875 125.6906508134388787 0.0000000000000000 16.0000000000000000 112
5.2301257453297181  -11.2111981632197839 125.7009674429638864 0.0000000000000000 16.0000000000000000 113
5.2763539071866115  -11.2116579006299446 125.7109974187698214 0.0000000000000000 16.0000000000000000 114
5.3225826611186093  -11.2121048452937586 125.7207502524862406 0.0000000000000000 16.0000000000000000 115
5.3688119953130400  -11.2125394226013917 125.7302349783552984 0.0000000000000000 16.0000000000000000 116
5.4150418988176314  -11.2129620365622031 125.7394601906257918 0.0000000000000000 16.0000000000000000 117
5.4612723614430569  -11.2133730714797437 125.7484340772981852 0.0000000000000000 16.0000000000000000 118
5.5075033736756289  -11.2137728934630161 125.7571644505998449 0.0000000000000000 16.0000000000000000 119
5.5537349265990823  -11.2141618517914701 125.7656587745349412 0.0000000000000000 16.0000000000000000 120
5.5999670118246234  -11.2145402801488512 125.7739241898110549 0.0000000000000000 16.0000000000000000 121
5.6461996214283730  -11.2149084977397528 125.7819675364176248 0.0000000000000000 16.0000000000000000 122
5.6924327478955430  -11.2152668103008608 125.7897953740957462 0.0000000000000000 16.0000000000000000 123
5.7386663840706582  -11.2156155110177398 125.7974140009185362 0.0000000000000000 16.0000000000000000 124
5.7849005231131994  -11.2159548813572556 125.8048294701769123 0.0000000000000000 16.0000000000000000 125
5.8311351584581850  -11.2162851918238680 125.8120476057412986 0.0000000000000000 16.0000000000000000 126
5.8773702837811550  -11.2166067026478586 125.8190740160571863 0.0000000000000000 16.0000000000000000 127
5.9236058929671334  -11.2169196644123144 125.8259141069109859 0.0000000000000000 16.0000000000000000 128
5.9698419800831859  -11.2172243186250835 125.8325730930925204 0.0000000000000000 16.0000000000000000 129
6.0160785393541794  -11.2175208982412613 125.8390560090609540 0.0000000000000000 16.0000000000000000 130
6.0623155651414402  -11.2178096281412056 125.8453677187196149 0.0000000000000000 16.0000000000000000 131
6.1085530519240008  -11.2180907255685280 125.8515129243831439 0.0000000000000000 16.0000000000000000 132
6.1547909942821892  -11.2183644005319483 125.8574961750192500 0.0000000000000000 16.0000000000000000 133
6.2010293868832900  -11.2186308561746646 125.8633218738351758 0.0000000000000000 16.0000000000000000 134
6.2472682244690771  -11.2188902891144693 125.8689942852755337 0.0000000000000000 16.0000000000000000 135
6.2935075018450313  -11.2191428897573129 125.8745175414838968 0.0000000000000000 16.0000000000000000 136
6.3397472138710356  -11.2193888425870245 125.8798956482840197 0.0000000000000000 16.0000000000000000 137
6.3859873554534028  -11.2196283264334955 125.8851324907243594 0.0000000000000000 16.0000000000000000 138
6.4322279215381055  -11.2198615147212184 125.8902318382285301 0.0000000000000000 16.0000000000000000 139
6.4784689071050554  -11.2200885757001778 125.8951973493868479 0.0000000000000000 16.0000000000000000 140
6.5247103071633124  -11.2203096726607843 125.9000325764240245 0.0000000000000000 16.0000000000000000 141
6.5709521167471401  -11.2205249641341620 125.9047409693735062 0.0000000000000000 16.0000000000000000 142
6.6171943309127927  -11.2207346040793112 125.9093258799806989 0.0000000000000000 16.0000000000000000 143
6.6634369447359463  -11.2209387420582303 125.9137905653663267 0.0000000000000000 16.0000000000000000 144
6.7096799533097098  -11.2211375234001380 125.9181381914656015 0.0000000000000000 16.0000000000000000 145
6.7559233517431458  -11.2213310893556688 125.9223718362642614 0.0000000000000000 16.0000000000000000 146
6.8021671351602038  -11.2215195772421623 125.9264944928527541 0.0000000000000000 16.0000000000000000 147
6.8484112986990775  -11.2217031205803970 125.9305090723069043 0.0000000000000000 16.0000000000000000 148
6.8946558375118583  -11.2218818492239869 125.9344184064171230 0.0000000000000000 16.0000000000000000 149
6.9409007467644983  -11.2220558894816413 125.9382252502733053 0.0000000000000000 16.0000000000000000 150
6.9871460216370114  -11.2222253642331555 125.9419322847200817 0.0000000000000000 16.0000000000000000 151
7.0333916573238913  -11.2223903930394524 125.9455421186911934 0.0000000000000000 16.0000000000000000 152
7.0796376490346979  -11.2225510922473326 125.9490572914331636 0.0000000000000000 16.0000000000000000 153
7.1258839919948116  -11.2227075750890570 125.9524802746263532 0.0000000000000000 16.0000000000000000 154
7.1721306814462871  -11.2228599517775844 125.9558134744123805 0.0000000000000000 16.0000000000000000 155
7.2183777126488273  -11.2230083295973380 125.9590592333313737 0.0000000000000000 16.0000000000000000 156
7.2646250808808261  -11.2231528129911347 125.9622198321802387 0.0000000000000000 16.0000000000000000 157
7.3108727814404810  -11.2232935036434398 125.9652974917932227 0.0000000000000000 16.0000000000000000 158
7.3571208096469531  -11.2234305005601609 125.9682943747526309 0.0000000000000000 16.0000000000000000 159
7.4033691608415477  -11.2235639001453347 125.9712125870333210 0.0000000000000000 16.0000000000000000 160
7.4496178303889220  -11.2236937962748335 125.9740541795854654 0.0000000000000000 16.0000000000000000 161
7.4958668136783091  -11.2238202803672067 125.9768211498588784 0.0000000000000000 16.0000000000000000 162
7.5421161061247277  -11.2239434414520822 125.9795154432736268 0.0000000000000000 16.0000000000000000 163
7.5883657031701928  -11.2240633662359457 125.9821389546389838 0.0000000000000000 16.0000000000000000 164
7.6346156002849117  -11.2241801391657425 125.9846935295245771 0.0000000000000000 16.0000000000000000 165
7.6808657929684427  -11.2242938424902690 125.9871809655851393 0.0000000000000000 16.0000000000000000 166
7.7271162767508548  -11.2244045563194668 125.9896030138424834 0.0000000000000000 16.0000000000000000 167
7.7733670471938225  -11.2245123586818991 125.9919613799268774 0.0000000000000000 16.0000000000000000 168
7.8196180998917066  -11.2246173255802582 125.9942577252797662 0.0000000000000000 16.0000000000000000 169
7.8658694304726025  -11.2247195310451424 125.9964936683174983 0.0000000000000000 16.0000000000000000 170
7.9121210345993109  -11.2248190471873492 125.9986707855634336 0.0000000000000000 16.0000000000000000 171
7.9583729079703280  -11.2249159442482611 126.0007906127424917 0.0000000000000000 16.0000000000000000 172
8.0046250463207134  -11.2250102906490490 126.0028546458468810 0.0000000000000000 16.0000000000000000 173
8.0508774454229890  -11.2251021530382111 126.0048643421690997 0.0000000000000000 16.0000000000000000 174
8.0971301010879255  -11.2251915963378437 126.0068211213056628 0.0000000000000000 16.0000000000000000 175
8.1433830091653316  -11.2252786837885434 126.0087263661338710 0.0000000000000000 16.0000000000000000 176
8.1896361655447674  -11.2253634769930279 126.0105814237594615 0.0000000000000000 16.0000000000000000 177
8.2358895661562244  -11.2254460359585533 126.0123876064398445 0.0000000000000000 16.0000000000000000 178
8.2821432069707424  -11.2255264191382267 126.0141461924810073 0.0000000000000000 16.0000000000000000 179
8.3283970840009971  -11.2256046834710332 126.0158584271107429 0.0000000000000000 16.0000000000000000 180
8.3746511933018351  -11.2256808844209210 126.0175255233282883 0.0000000000000000 16.0000000000000000 181
8.4209055309707672  -11.2257550760147158 126.0191486627312543 0.0000000000000000 16.0000000000000000 182
8.4671600931484043  -11.2258273108791151 126.0207289963203152 0.0000000000000000 16.0000000000000000 183
8.5134148760188459  -11.2258976402767505 126.0222676452844297 0.0000000000000000 16.0000000000000000 184
8.5596698758100764  -11.2259661141410199 126.0237657017626844 0.0000000000000000 16.0000000000000000 185
8.6059250887942458  -11.2260327811103391 126.0252242295885594 0.0000000000000000 16.0000000000000000 186
8.6521805112879662  -11.2260976885613122 126.0266442650149514 0.0000000000000000 16.0000000000000000 187
8.6984361396525269  -11.2261608826411319 126.0280268174189473 0.0000000000000000 16.0000000000000000 188
8.7446919702941184  -11.2262224082990034 126.0293728699895155 0.0000000000000000 16.0000000000000000 189
8.7909479996639774  -11.2262823093169235 126.0306833803973490 0.0000000000000000 16.0000000000000000 190
8.8372042242585174  -11.2263406283395710 126.0319592814485219 0.0000000000000000 16.0000000000000000 191
