 # inv_tmp, energy, phys_var, phys_doublon, phys_num, step_i
0.0309065283864251  -0.7112472482819890 6.5264683170899165 0.0000000000000000 12.0000000000000000 1
0.0616354540458698  -0.8977128816664102 6.8926543419095063 0.0000000000000000 12.0000000000000000 2
0.0921862509474435  -1.0856276107884653 7.3246759666193730 0.0000000000000000 12.0000000000000000 3
0.1225588440998426  -1.2747670619575926 7.8233900540257331 0.0000000000000000 12.0000000000000000 4
0.1527536041457258  -1.4649037967056855 8.3894046733580812 0.0000000000000000 12.0000000000000000 5
0.1827713340592379  -1.6558100960771331 9.0230731737666687 0.0000000000000000 12.0000000000000000 6
0.2126132489645506  -1.8472605455281319 9.7244932998989313 0.0000000000000000 12.0000000000000000 7
0.2422809502058506  -2.0390343789134979 10.4935111237756971 0.0000000000000000 12.0000000000000000 8
0.2717763948447539  -2.2309175536826746 11.3297294535193167 0.0000000000000000 12.0000000000000000 9
0.3011018617440869  -2.4227045430839684 12.2325202883626964 0.0000000000000000 12.0000000000000000 10
0.3302599153269742  -2.6141998438377723 13.2010408201598537 0.0000000000000000 12.0000000000000000 11
0.3592533679906968  -2.8052192084710033 14.2342524315316545 0.0000000000000000 12.0000000000000000 12
0.3880852420217483  -2.9955906196066144 15.3309421055293349 0.0000000000000000 12.0000000000000000 13
0.4167587317183936  -3.1851550285448429 16.4897456363491486 0.0000000000000000 12.0000000000000000 14
0.4452771662952740  -3.3737668823248912 17.7091720104884303 0.0000000000000000 12.0000000000000000 15
0.4736439740340690  -3.5612944622794975 18.9876283091533722 0.0000000000000000 12.0000000000000000 16
0.5018626480641216  -3.7476200533176707 20.3234444637496310 0.0000000000000000 12.0000000000000000 17
0.5299367141120482  -3.9326399574351085 21.7148971770061294 0.0000000000000000 12.0000000000000000 18
0.5578697005498661  -4.1162643580484337 23.1602323049450085 0.0000000000000000 12.0000000000000000 19
0.5856651110928025  -4.2984170345461017 24.6576849837149510 0.0000000000000000 12.0000000000000000 20
0.6133264005425842  -4.4790349198148949 26.2054967859567469 0.0000000000000000 12.0000000000000000 21
0.6408569540285510  -4.6580674882397179 27.8019292104585496 0.0000000000000000 12.0000000000000000 22
0.6682600702544258  -4.8354759584640181 29.4452728531134582 0.0000000000000000 12.0000000000000000 23
0.6955389492993205  -5.0112322945462004 31.1338516827105209 0.0000000000000000 12.0000000000000000 24
0.7226966855343996  -5.1853179913609164 32.8660219565990417 0.0000000000000000 12.0000000000000000 25
0.7497362661899577  -5.3577226352619363 34.6401654614573573 0.0000000000000000 12.0000000000000000 26
0.7766605760325530  -5.5284422390156820 36.4546769534121822 0.0000000000000000 12.0000000000000000 27
0.8034724084826960  -5.6974773604886675 38.3079458967827193 0.0000000000000000 12.0000000000000000 28
0.8301744833189586  -5.8648310269926931 40.1983328557884576 0.0000000000000000 12.0000000000000000 29
0.8567694708772303  -6.0305065008526935 42.1241411694503185 0.0000000000000000 12.0000000000000000 30
0.8832600223719542  -6.1945049358192925 44.0835848243154231 0.0000000000000000 12.0000000000000000 31
0.9096488056519010  -6.3568229874542848 46.0747537174546125 0.0000000000000000 12.0000000000000000 32
0.9359385453731831  -6.5174504525658534 48.0955777561151976 0.0000000000000000 12.0000000000000000 33
0.9621320662472581  -6.6763680221470683 50.1437914517872372 0.0000000000000000 12.0000000000000000 34
0.9882323377248367  -6.8335452381146418 52.2169008163446051 0.0000000000000000 12.0000000000000000 35
1.0142425182324077  -6.9889387456162879 54.3121544386077915 0.0000000000000000 12.0000000000000000 36
1.0401659969104977  -7.1424909291352332 56.4265205962219767 0.0000000000000000 12.0000000000000000 37
1.0660064307331691  -7.2941290117071285 58.5566721298051220 0.0000000000000000 12.0000000000000000 38
1.0917677749330874  -7.4437646822654129 60.6989805698551237 0.0000000000000000 12.0000000000000000 39
1.1174543048251286  -7.5912942968341497 62.8495206655728964 0.0000000000000000 12.0000000000000000 40
1.1430706274143649  -7.7365996758088906 65.0040860308318855 0.0000000000000000 12.0000000000000000 41
1.1686216815817252  -7.8795494931313446 67.1582161169579592 0.0000000000000000 12.0000000000000000 42
1.1941127261426840  -8.0200012253482029 69.3072341735848880 0.0000000000000000 12.0000000000000000 43
1.2195493156416450  -8.1578036011608930 71.4462953023797525 0.0000000000000000 12.0000000000000000 44
1.2449372643405914  -8.2927994670241461 73.5704431818407869 0.0000000000000000 12.0000000000000000 45
1.2702825994442719  -8.4248289634515352 75.6746735823221002 0.0000000000000000 12.0000000000000000 46
1.2955915051344695  -8.5537328914824435 77.7540024326266632 0.0000000000000000 12.0000000000000000 47
1.3208702594253077  -8.6793561403738977 79.8035359691383235 0.0000000000000000 12.0000000000000000 48
1.3461251661700324  -8.8015510465698963 81.8185404115103267 0.0000000000000000 12.0000000000000000 49
1.3713624847276460  -8.9201805603280029 83.7945086694480636 0.0000000000000000 12.0000000000000000 50
1.3965883598276108  -9.0351211094086992 85.7272217850017739 0.0000000000000000 12.0000000000000000 51
1.4218087540574791  -9.1462650677951967 87.6128031347948024 0.0000000000000000 12.0000000000000000 52
1.4470293851579181  -9.2535227599624363 89.4477638287870889 0.0000000000000000 12.0000000000000000 53
1.4722556699673277  -9.3568239559890714 91.2290382129483532 0.0000000000000000 12.0000000000000000 54
1.4974926764451795  -9.4561188380054819 92.9540088770425541 0.0000000000000000 12.0000000000000000 55
1.5227450847527602  -9.5513784424297352 94.6205210515296073 0.0000000000000000 12.0000000000000000 56
1.5480171579147979  -9.6425946037702239 96.2268867197539919 0.0000000000000000 12.0000000000000000 57
1.5733127221543504  -9.7297794434409841 97.7718791500615083 0.0000000000000000 12.0000000000000000 58
1.5986351566095056  -9.8129644604228794 99.2547188519696846 0.0000000000000000 12.0000000000000000 59
1.6239873918202246  -9.8921992894905486 100.6750521736361890 0.0000000000000000 12.0000000000000000 60
1.6493719161262783  -9.9675501972470144 102.0329238845664577 0.0000000000000000 12.0000000000000000 61
1.6747907889453282  -10.0390983867823564 103.3287451337589289 0.0000000000000000 12.0000000000000000 62
1.7002456598007998  -10.1069381790170887 104.5632581497843745 0.0000000000000000 12.0000000000000000 63
1.7257377919351458  -10.1711751334297293 105.7374989688655660 0.0000000000000000 12.0000000000000000 64
1.7512680893652597  -10.2319241636601692 106.8527593543091712 0.0000000000000000 12.0000000000000000 65
1.7768371263018106  -10.2893076951492599 107.9105489198945236 0.0000000000000000 12.0000000000000000 66
1.8024451779512092  -10.3434539031662460 108.9125583041295044 0.0000000000000000 12.0000000000000000 67
1.8280922518367366  -10.3944950608246938 109.8606240728369698 0.0000000000000000 12.0000000000000000 68
1.8537781189040736  -10.4425660184097833 110.7566958633144907 0.0000000000000000 12.0000000000000000 69
1.8795023438078180  -10.4878028278294160 111.6028061309749688 0.0000000000000000 12.0000000000000000 70
1.9052643139030638  -10.5303415194416363 112.4010427233871781 0.0000000000000000 12.0000000000000000 71
1.9310632665849441  -10.5703170329897116 113.1535243895291103 0.0000000000000000 12.0000000000000000 72
1.9568983147260708  -10.6078622999055945 113.8623792347548118 0.0000000000000000 12.0000000000000000 73
1.9827684700552304  -10.6431074707766626 114.5297260541446889 0.0000000000000000 12.0000000000000000 74
2.0086726643998305  -10.6761792792248542 115.1576584173321436 0.0000000000000000 12.0000000000000000 75
2.0346097687796223  -10.7072005317122780 115.7482313347686471 0.0000000000000000 12.0000000000000000 76
2.0605786103909569  -10.7362897117433054 116.3034503065715342 0.0000000000000000 12.0000000000000000 77
2.0865779875604149  -10.7635606864577582 116.8252625383354655 0.0000000000000000 12.0000000000000000 78
2.1126066827755716  -10.7891225035875760 117.3155501013640105 0.0000000000000000 12.0000000000000000 79
2.1386634739203871  -10.8130792670731797 117.7761248156093927 0.0000000000000000 12.0000000000000000 80
2.1647471438547816  -10.8355300802131485 118.2087246403305016 0.0000000000000000 12.0000000000000000 81
2.1908564884837811  -10.8565690459711348 118.6150113684580418 0.0000000000000000 12.0000000000000000 82
2.2169903234625101  -10.8762853149219421 118.9965694345215041 0.0000000000000000 12.0000000000000000 83
2.2431474896804251  -10.8947631722310412 119.3549056616123210 0.0000000000000000 12.0000000000000000 84
2.2693268576624823  -10.9120821559871395 119.6914497893306191 0.0000000000000000 12.0000000000000000 85
2.2955273310173161  -10.9283172001155044 120.0075556412971167 0.0000000000000000 12.0000000000000000 86
2.3217478490535672  -10.9435387959674557 120.3045028070779807 0.0000000000000000 12.0000000000000000 87
2.3479873886758886  -10.9578131674942636 120.5834987289037201 0.0000000000000000 12.0000000000000000 88
2.3742449656622231  -10.9712024556624996 120.8456810981116973 0.0000000000000000 12.0000000000000000 89
2.4005196354140699  -10.9837649084471938 121.0921204796467379 0.0000000000000000 12.0000000000000000 90
2.4268104932618542  -10.9955550733487399 121.3238230951502743 0.0000000000000000 12.0000000000000000 91
2.4531166743983692  -11.0066239899193903 121.5417337061216898 0.0000000000000000 12.0000000000000000 92
2.4794373535046796  -11.0170193802595513 121.7467385483847124 0.0000000000000000 12.0000000000000000 93
2.5057717441249237  -11.0267858358559963 121.9396682776742296 0.0000000000000000 12.0000000000000000 94
2.5321190978391828  -11.0359649994895701 122.1213008936620383 0.0000000000000000 12.0000000000000000 95
2.5584787032769740  -11.0445957412429525 122.2923646162324047 0.0000000000000000 12.0000000000000000 96
2.5848498850079893  -11.0527143278962150 122.4535406934072057 0.0000000000000000 12.0000000000000000 97
2.6112320023413740  -11.0603545852132825 122.6054661250802980 0.0000000000000000 12.0000000000000000 98
2.6376244480601527  -11.0675480528016763 122.7487362907536834 0.0000000000000000 12.0000000000000000 99
2.6640266471132277  -11.0743241313755227 122.8839074728536502 0.0000000000000000 12.0000000000000000 100
2.6904380552837397  -11.0807102223718044 123.0114992700238048 0.0000000000000000 12.0000000000000000 101
2.7168581578493955  -11.0867318599664610 123.1319968971189951 0.0000000000000000 12.0000000000000000 102
2.7432864682475984  -11.0924128356132137 123.2458533705251682 0.0000000000000000 12.0000000000000000 103
2.7697225267558330  -11.0977753152875387 123.3534915789675495 0.0000000000000000 12.0000000000000000 104
2.7961658991956968  -11.1028399496630179 123.4553062411916642 0.0000000000000000 12.0000000000000000 105
2.8226161756672199  -11.1076259774805166 123.5516657528647357 0.0000000000000000 12.0000000000000000 106
2.8490729693185988  -11.1121513223936539 123.6429139257810874 0.0000000000000000 12.0000000000000000 107
2.8755359151552264  -11.1164326835889806 123.7293716230067275 0.0000000000000000 12.0000000000000000 108
2.9020046688908114  -11.1204856204875746 123.8113382939949219 0.0000000000000000 12.0000000000000000 109
2.9284789058424834  -11.1243246318378404 123.8890934139747912 0.0000000000000000 12.0000000000000000 110
2.9549583198710527  -11.1279632295075928 123.9628978320744039 0.0000000000000000 12.0000000000000000 111
2.9814426223669530  -11.1314140072792824 124.0329950327241875 0.0000000000000000 12.0000000000000000 112
3.0079315412819088  -11.1346887049444572 124.0996123148915729 0.0000000000000000 12.0000000000000000 113
3.0344248202059450  -11.1377982679846923 124.1629618936582915 0.0000000000000000 12.0000000000000000 114
3.0609222174890429  -11.1407529031153238 124.2232419285630982 0.0000000000000000 12.0000000000000000 115
3.0874235054064707  -11.1435621299567504 124.2806374830149139 0.0000000000000000 12.0000000000000000 116
3.1139284693666225  -11.1462348290858255 124.3353214189394436 0.0000000000000000 12.0000000000000000 117
3.1404369071600526  -11.1487792867071427 124.3874552306613168 0.0000000000000000 12.0000000000000000 118
3.1669486282482713  -11.1512032361713871 124.4371898218525700 0.0000000000000000 12.0000000000000000 119
3.1934634530907955  -11.1535138965551290 124.4846662291986519 0.0000000000000000 12.0000000000000000 120
3.2199812125089027  -11.1557180085040422 124.5300162962514179 0.0000000000000000 12.0000000000000000 121
3.2465017470845043  -11.1578218675293570 124.5733633007531580 0.0000000000000000 12.0000000000000000 122
3.2730249065925547  -11.1598313549355197 124.6148225385361883 0.0000000000000000 12.0000000000000000 123
3.2995505494654220  -11.1617519665458058 124.6545018669221463 0.0000000000000000 12.0000000000000000 124
3.3260785422876649  -11.1635888393816671 124.6925022103718277 0.0000000000000000 12.0000000000000000 125
3.3526087593196912  -11.1653467764415346 124.7289180309700214 0.0000000000000000 12.0000000000000000 126
3.3791410820488239  -11.1670302697145765 124.7638377661652385 0.0000000000000000 12.0000000000000000 127
3.4056753987663293  -11.1686435215562021 124.7973442360331546 0.0000000000000000 12.0000000000000000 128
3.4322116041690292  -11.1701904645428307 124.8295150221828180 0.0000000000000000 12.0000000000000000 129
3.4587495989841477  -11.1716747799156479 124.8604228202866295 0.0000000000000000 12.0000000000000000 130
3.4852892896161327  -11.1730999147151131 124.8901357680817910 0.0000000000000000 12.0000000000000000 131
3.5118305878142095  -11.1744690977008805 124.9187177505669979 0.0000000000000000 12.0000000000000000 132
3.5383734103595019  -11.1757853541450167 124.9462286839999194 0.0000000000000000 12.0000000000000000 133
3.5649176787706147  -11.1770515195799902 124.9727247801908732 0.0000000000000000 12.0000000000000000 134
3.5914633190266034  -11.1782702525772315 124.9982587924841795 0.0000000000000000 12.0000000000000000 135
3.6180102613063401  -11.1794440466263545 125.0228802447222733 0.0000000000000000 12.0000000000000000 136
3.6445584397433080  -11.1805752411801755 125.0466356443956499 0.0000000000000000 12.0000000000000000 137
3.6711077921949320  -11.1816660319258485 125.0695686810980192 0.0000000000000000 12.0000000000000000 138
3.6976582600255816  -11.1827184803380710 125.0917204113264063 0.0000000000000000 12.0000000000000000 139
3.7242097879024478  -11.1837345225661444 125.1131294305913570 0.0000000000000000 12.0000000000000000 140
3.7507623236035195  -11.1847159777030143 125.1338320337357004 0.0000000000000000 12.0000000000000000 141
3.7773158178369499  -11.1856645554806633 125.1538623642929338 0.0000000000000000 12.0000000000000000 142
3.8038702240711291  -11.1865818634332257 125.1732525536607170 0.0000000000000000 12.0000000000000000 143
3.8304254983748223  -11.1874694135659389 125.1920328508058589 0.0000000000000000 12.0000000000000000 144
3.8569815992667755  -11.1883286285653814 125.2102317431683787 0.0000000000000000 12.0000000000000000 145
3.8835384875742163  -11.1891608475837749 125.2278760693829724 0.0000000000000000 12.0000000000000000 146
3.9100961262997198  -11.1899673316277202 125.2449911243918734 0.0000000000000000 12.0000000000000000 147
3.9366544804959323  -11.1907492685795695 125.2616007574828387 0.0000000000000000 12.0000000000000000 148
3.9632135171476914  -11.1915077778775292 125.2777274637466860 0.0000000000000000 12.0000000000000000 149
3.9897732050610841  -11.1922439148786061 125.2933924694135044 0.0000000000000000 12.0000000000000000 150
4.0163335147590349  -11.1929586749269063 125.3086158114942066 0.0000000000000000 12.0000000000000000 151
4.0428944183830300  -11.1936529971479963 125.3234164121230521 0.0000000000000000 12.0000000000000000 152
4.0694558896006079  -11.1943277679886624 125.3378121479688900 0.0000000000000000 12.0000000000000000 153
4.0960179035182716  -11.1949838245198059 125.3518199150556995 0.0000000000000000 12.0000000000000000 154
4.1225804365994936  -11.1956219575192044 125.3654556893099254 0.0000000000000000 12.0000000000000000 155
4.1491434665875113  -11.1962429143493445 125.3787345831285762 0.0000000000000000 12.0000000000000000 156
4.1757069724326277  -11.1968474016446784 125.3916708982411308 0.0000000000000000 12.0000000000000000 157
4.2022709342237459  -11.1974360878214867 125.4042781751196145 0.0000000000000000 12.0000000000000000 158
4.2288353331238779  -11.1980096054226372 125.4165692391723610 0.0000000000000000 12.0000000000000000 159
4.2554001513094049  -11.1985685533085793 125.4285562439405624 0.0000000000000000 12.0000000000000000 160
4.2819653719128521  -11.1991134987052057 125.4402507115015055 0.0000000000000000 12.0000000000000000 161
4.3085309789689719  -11.1996449791183821 125.4516635702678826 0.0000000000000000 12.0000000000000000 162
4.3350969573639455  -11.2001635041241983 125.4628051903585373 0.0000000000000000 12.0000000000000000 163
4.3616632927875116  -11.2006695570435166 125.4736854167052371 0.0000000000000000 12.0000000000000000 164
4.3882299716878483  -11.2011635965085592 125.4843136000467609 0.0000000000000000 12.0000000000000000 165
4.4147969812290473  -11.2016460579289401 125.4946986259521253 0.0000000000000000 12.0000000000000000 166
4.4413643092510293  -11.2021173548639119 125.5048489420053386 0.0000000000000000 12.0000000000000000 167
4.4679319442317498  -11.2025778803070786 125.5147725832725598 0.0000000000000000 12.0000000000000000 168
4.4944998752515728  -11.2030280078895252 125.5244771961674530 0.0000000000000000 12.0000000000000000 169
4.5210680919596671  -11.2034680930067996 125.5339700608198967 0.0000000000000000 12.0000000000000000 170
4.5476365845423308  -11.2038984738747640 125.5432581120463453 0.0000000000000000 12.0000000000000000 171
4.5742053436930963  -11.2043194725191775 125.5523479590157763 0.0000000000000000 12.0000000000000000 172
4.6007743605845572  -11.2047313957032486 125.5612459036945125 0.0000000000000000 12.0000000000000000 173
4.6273436268417738  -11.2051345357973418 125.5699579581512921 0.0000000000000000 12.0000000000000000 174
4.6539131345171878  -11.2055291715946712 125.5784898607968501 0.0000000000000000 12.0000000000000000 175
4.6804828760669634  -11.2059155690764101 125.5868470916262254 0.0000000000000000 12.0000000000000000 176
4.7070528443286488  -11.2062939821296723 125.5950348865299731 0.0000000000000000 12.0000000000000000 177
4.7336230325001045  -11.2066646532213419 125.6030582507332696 0.0000000000000000 12.0000000000000000 178
4.7601934341196168  -11.2070278140306172 125.6109219714194580 0.0000000000000000 12.0000000000000000 179
4.7867640430471292  -11.2073836860430198 125.6186306295907400 0.0000000000000000 12.0000000000000000 180
4.8133348534465137  -11.2077324811082928 125.6261886112142889 0.0000000000000000 12.0000000000000000 181
4.8399058597688542  -11.2080744019645131 125.6336001176998138 0.0000000000000000 12.0000000000000000 182
4.8664770567366489  -11.2084096427306417 125.6408691757511349 0.0000000000000000 12.0000000000000000 183
4.8930484393289024  -11.2087383893694650 125.6479996466309643 0.0000000000000000 12.0000000000000000 184
4.9196200027670498  -11.2090608201228523 125.6549952348765657 0.0000000000000000 12.0000000000000000 185
4.9461917425016573  -11.2093771059210745 125.6618594965007389 0.0000000000000000 12.0000000000000000 186
4.9727636541998708  -11.2096874107678541 125.6685958467102608 0.0000000000000000 12.0000000000000000 187
4.9993357337335596  -11.2099918921026358 125.6752075671722650 0.0000000000000000 12.0000000000000000 188
5.0259079771681137  -11.2102907011415258 125.6816978128564415 0.0000000000000000 12.0000000000000000 189
5.0524803807518683  -11.2105839831982763 125.6880696184800286 0.0000000000000000 12.0000000000000000 190
5.0790529409061094  -11.2108718779865217 125.6943259045797703 0.0000000000000000 12.0000000000000000 191
5.1056256542156335  -11.2111545199044045 125.7004694832337179 0.0000000000000000 12.0000000000000000 192
