 # inv_tmp, energy, phys_var, phys_doublon, phys_num, step_i
0.1103438688730874  -0.1251574774880344 1.1448178404775979 0.0000000000000000 12.0000000000000000 1
0.2191881103312584  -0.2491650389011104 1.1756331059769753 0.0000000000000000 12.0000000000000000 2
0.3266120856044238  -0.3704163576693186 1.2275995996909179 0.0000000000000000 12.0000000000000000 3
0.4327091282069113  -0.4881701783156919 1.2989086174121653 0.0000000000000000 12.0000000000000000 4
0.5375822339824542  -0.6018052083290845 1.3873693204012354 0.0000000000000000 12.0000000000000000 5
0.6413399782927565  -0.7108248451062338 1.4905394476282370 0.0000000000000000 12.0000000000000000 6
0.7440928841919751  -0.8148553727978127 1.6058526098314858 0.0000000000000000 12.0000000000000000 7
0.8459503694755479  -0.9136391180008556 1.7307330480708893 0.0000000000000000 12.0000000000000000 8
0.9470183175801733  -1.0070241154296833 1.8626918678219786 0.0000000000000000 12.0000000000000000 9
1.0473972554035202  -1.0949516974768112 1.9994018070219945 0.0000000000000000 12.0000000000000000 10
1.1471810814702361  -1.1774431738401998 2.1387501607164028 0.0000000000000000 12.0000000000000000 11
1.2464562674149724  -1.2545864844288801 2.2788713758459798 0.0000000000000000 12.0000000000000000 12
1.3453014494991100  -1.3265234417761609 2.4181620264650237 0.0000000000000000 12.0000000000000000 13
1.4437873297551427  -1.3934379551236447 2.5552814692405246 0.0000000000000000 12.0000000000000000 14
1.5419768142075121  -1.4555454554083456 2.6891415988066454 0.0000000000000000 12.0000000000000000 15
1.6399253255352764  -1.5130836152890699 2.8188889183577261 0.0000000000000000 12.0000000000000000 16
1.7376812377395712  -1.5663043725028880 2.9438817425531538 0.0000000000000000 12.0000000000000000 17
1.8352863899261842  -1.6154672086071162 3.0636648601792689 0.0000000000000000 12.0000000000000000 18
1.9327766448235466  -1.6608336000817205 3.1779434770516923 0.0000000000000000 12.0000000000000000 19
2.0301824650413884  -1.7026625383568850 3.2865577835902089 0.0000000000000000 12.0000000000000000 20
2.1275294863849186  -1.7412070050159776 3.3894590739307713 0.0000000000000000 12.0000000000000000 21
2.2248390728696905  -1.7767112851209332 3.4866879966123849 0.0000000000000000 12.0000000000000000 22
2.3221288425343811  -1.8094090032469565 3.5783552425258183 0.0000000000000000 12.0000000000000000 23
2.4194131568154371  -1.8395217719573806 3.6646247690538440 0.0000000000000000 12.0000000000000000 24
2.5167035692132949  -1.8672583500287543 3.7456995116438581 0.0000000000000000 12.0000000000000000 25
2.6140092313240268  -1.8928142169036573 3.8218094353930088 0.0000000000000000 12.0000000000000000 26
2.7113372561098918  -1.9163714799083444 3.8932017194646877 0.0000000000000000 12.0000000000000000 27
2.8086930396132122  -1.9380990411511168 3.9601328369466202 0.0000000000000000 12.0000000000000000 28
2.9060805432541605  -1.9581529612572131 4.0228622840010377 0.0000000000000000 12.0000000000000000 29
3.0035025394648205  -1.9766769668492135 4.0816477181566189 0.0000000000000000 12.0000000000000000 30
3.1009608237643036  -1.9938030577043078 4.1367412810572581 0.0000000000000000 12.0000000000000000 31
3.1984563965312134  -2.0096521776595755 4.1883869018907109 0.0000000000000000 12.0000000000000000 32
3.2959896177309158  -2.0243349205198373 4.2368184011345225 0.0000000000000000 12.0000000000000000 33
3.3935603377486787  -2.0379522484376613 4.2822582381293142 0.0000000000000000 12.0000000000000000 34
3.4911680073007334  -2.0505962055151543 4.3249167689704695 0.0000000000000000 12.0000000000000000 35
3.5888117691712971  -2.0623506137870620 4.3649919024765254 0.0000000000000000 12.0000000000000000 36
3.6864905342760395  -2.0732917423677248 4.4026690611092292 0.0000000000000000 12.0000000000000000 37
3.7842030442972110  -2.0834889434730250 4.4381213705193927 0.0000000000000000 12.0000000000000000 38
3.8819479228839300  -2.0930052513566917 4.4715100158876773 0.0000000000000000 12.0000000000000000 39
3.9797237171708426  -2.1018979420188098 4.5029847155468428 0.0000000000000000 12.0000000000000000 40
4.0775289311442746  -2.1102190529371394 4.5326842727024612 0.0000000000000000 12.0000000000000000 41
4.1753620521798727  -2.1180158631142612 4.5607371746334131 0.0000000000000000 12.0000000000000000 42
4.2732215718907591  -2.1253313344919418 4.5872622157794751 0.0000000000000000 12.0000000000000000 43
4.3711060022604169  -2.1322045163152805 4.6123691268310321 0.0000000000000000 12.0000000000000000 44
4.4690138878891865  -2.1386709143812874 4.6361591965294533 0.0000000000000000 12.0000000000000000 45
4.5669438150561312  -2.1447628273196209 4.6587258765490649 0.0000000000000000 12.0000000000000000 46
4.6648944181877505  -2.1505096521600908 4.6801553627237382 0.0000000000000000 12.0000000000000000 47
4.7628643842298590  -2.1559381614689661 4.7005271481420632 0.0000000000000000 12.0000000000000000 48
4.8608524553373442  -2.1610727543053496 4.7199145453825624 0.0000000000000000 12.0000000000000000 49
4.9588574302269199  -2.1659356831769134 4.7383851764940115 0.0000000000000000 12.0000000000000000 50
5.0568781644787837  -2.1705472590742572 4.7560014303280767 0.0000000000000000 12.0000000000000000 51
5.1549135700231163  -2.1749260365452892 4.7728208875703002 0.0000000000000000 12.0000000000000000 52
5.2529626140050683  -2.1790889806431291 4.7888967143468104 0.0000000000000000 12.0000000000000000 53
5.3510243171865612  -2.1830516174487853 4.8042780256530824 0.0000000000000000 12.0000000000000000 54
5.4490977520134800  -2.1868281697376801 4.8190102200944693 0.0000000000000000 12.0000000000000000 55
5.5471820404521512  -2.1904316792298513 4.8331352875751588 0.0000000000000000 12.0000000000000000 56
5.6452763516783708  -2.1938741167395972 4.8466920916462186 0.0000000000000000 12.0000000000000000 57
5.7433798996852587  -2.1971664814227037 4.8597166282429818 0.0000000000000000 12.0000000000000000 58
5.8414919408620660  -2.2003188902090658 4.8722422625217341 0.0000000000000000 12.0000000000000000 59
5.9396117715845129  -2.2033406584059514 4.8842999454569949 0.0000000000000000 12.0000000000000000 60
6.0377387258477340  -2.2062403723623314 4.8959184117923940 0.0000000000000000 12.0000000000000000 61
6.1358721729651196  -2.2090259549976627 4.9071243608571242 0.0000000000000000 12.0000000000000000 62
6.2340115153500895  -2.2117047249188646 4.9179426216713411 0.0000000000000000 12.0000000000000000 63
6.3321561863927309  -2.2142834497767412 4.9283963036716152 0.0000000000000000 12.0000000000000000 64
6.4303056484391403  -2.2167683944472456 4.9385069342945025 0.0000000000000000 12.0000000000000000 65
6.5284593908780533  -2.2191653645633682 4.9482945845645361 0.0000000000000000 12.0000000000000000 66
6.6266169283368388  -2.2214797458695981 4.9577779837441263 0.0000000000000000 12.0000000000000000 67
6.7247777989868354  -2.2237165398223215 4.9669746240176780 0.0000000000000000 12.0000000000000000 68
6.8229415629565429  -2.2258803958158637 4.9759008561017790 0.0000000000000000 12.0000000000000000 69
6.9211078008500024  -2.2279756403745314 4.9845719765974570 0.0000000000000000 12.0000000000000000 70
7.0192761123667902  -2.2300063036158058 4.9930023078299488 0.0000000000000000 12.0000000000000000 71
7.1174461150195150  -2.2319761432581178 5.0012052708556887 0.0000000000000000 12.0000000000000000 72
7.2156174429442439  -2.2338886664183346 5.0091934522556176 0.0000000000000000 12.0000000000000000 73
7.3137897457990393  -2.2357471494186143 5.0169786652780148 0.0000000000000000 12.0000000000000000 74
7.4119626877456595  -2.2375546557995891 5.0245720058427743 0.0000000000000000 12.0000000000000000 75
7.5101359465094797  -2.2393140527164146 5.0319839038720788 0.0000000000000000 12.0000000000000000 76
7.6083092125126814  -2.2410280258760364 5.0392241703695220 0.0000000000000000 12.0000000000000000 77
7.7064821880758965  -2.2426990931577100 5.0463020406306276 0.0000000000000000 12.0000000000000000 78
7.8046545866836636  -2.2443296170442055 5.0532262139320414 0.0000000000000000 12.0000000000000000 79
7.9028261323091620  -2.2459218159781136 5.0600048900143957 0.0000000000000000 12.0000000000000000 80
8.0009965587939753  -2.2474777747459678 5.0666458026443291 0.0000000000000000 12.0000000000000000 81
8.0991656092787991  -2.2489994539824689 5.0731562505145611 0.0000000000000000 12.0000000000000000 82
8.1973330356812255  -2.2504886988777635 5.0795431257166932 0.0000000000000000 12.0000000000000000 83
8.2954985982170104  -2.2519472471623363 5.0858129399995153 0.0000000000000000 12.0000000000000000 84
8.3936620649614042  -2.2533767364366346 5.0919718490057866 0.0000000000000000 12.0000000000000000 85
8.4918232114473717  -2.2547787109058079 5.0980256746624644 0.0000000000000000 12.0000000000000000 86
8.5899818202977318  -2.2561546275739506 5.1039799258831593 0.0000000000000000 12.0000000000000000 87
8.6881376808884809  -2.2575058619468837 5.1098398177269022 0.0000000000000000 12.0000000000000000 88
8.7862905890407106  -2.2588337132876575 5.1156102891439792 0.0000000000000000 12.0000000000000000 89
8.8844403467387689  -2.2601394094646592 5.1212960194276675 0.0000000000000000 12.0000000000000000 90
8.9825867618724775  -2.2614241114283358 5.1269014434797349 0.0000000000000000 12.0000000000000000 91
9.0807296480013573  -2.2626889173490463 5.1324307659878334 0.0000000000000000 12.0000000000000000 92
9.1788688241390179  -2.2639348664454721 5.1378879746039843 0.0000000000000000 12.0000000000000000 93
9.2770041145559929  -2.2651629425301678 5.1432768522053376 0.0000000000000000 12.0000000000000000 94
9.3751353485994251  -2.2663740772963461 5.1486009883111024 0.0000000000000000 12.0000000000000000 95
9.4732623605281550  -2.2675691533677282 5.1538637897229851 0.0000000000000000 12.0000000000000000 96
9.5713849893619098  -2.2687490071312340 5.1590684904505064 0.0000000000000000 12.0000000000000000 97
9.6695030787433041  -2.2699144313704616 5.1642181609771738 0.0000000000000000 12.0000000000000000 98
9.7676164768116074  -2.2710661777162771 5.1693157169186277 0.0000000000000000 12.0000000000000000 99
9.8657250360872020  -2.2722049589293087 5.1743639271194066 0.0000000000000000 12.0000000000000000 100
9.9638286133658038  -2.2733314510278344 5.1793654212310276 0.0000000000000000 12.0000000000000000 101
10.0619270696215981  -2.2744462952733260 5.1843226968103888 0.0000000000000000 12.0000000000000000 102
10.1600202699184869  -2.2755501000248231 5.1892381259742271 0.0000000000000000 12.0000000000000000 103
10.2581080833287341  -2.2766434424723294 5.1941139616423726 0.0000000000000000 12.0000000000000000 104
10.3561903828583652  -2.2777268702585243 5.1989523433997924 0.0000000000000000 12.0000000000000000 105
10.4542670453786783  -2.2788009029972951 5.2037553030049901 0.0000000000000000 12.0000000000000000 106
10.5523379515633664  -2.2798660336968366 5.2085247695700243 0.0000000000000000 12.0000000000000000 107
10.6504029858307234  -2.2809227300944399 5.2132625744354133 0.0000000000000000 12.0000000000000000 108
10.7484620362904426  -2.2819714359094649 5.2179704557613169 0.0000000000000000 12.0000000000000000 109
10.8465149946946493  -2.2830125720204575 5.2226500628546386 0.0000000000000000 12.0000000000000000 110
10.9445617563927406  -2.2840465375718981 5.2273029602502659 0.0000000000000000 12.0000000000000000 111
11.0426022202896590  -2.2850737110155808 5.2319306315631060 0.0000000000000000 12.0000000000000000 112
11.1406362888073112  -2.2860944510912651 5.2365344831264107 0.0000000000000000 12.0000000000000000 113
11.2386638678488548  -2.2871090977508270 5.2411158474306374 0.0000000000000000 12.0000000000000000 114
11.3366848667654807  -2.2881179730298284 5.2456759863760496 0.0000000000000000 12.0000000000000000 115
11.4346991983255517  -2.2891213818701122 5.2502160943512495 0.0000000000000000 12.0000000000000000 116
11.5327067786858048  -2.2901196128967376 5.2547373011489702 0.0000000000000000 12.0000000000000000 117
11.6307075273643932  -2.2911129391523284 5.2592406747295897 0.0000000000000000 12.0000000000000000 118
11.7287013672156100  -2.2921016187916723 5.2637272238421158 0.0000000000000000 12.0000000000000000 119
11.8266882244060945  -2.2930858957391815 5.2681979005116233 0.0000000000000000 12.0000000000000000 120
11.9246680283923130  -2.2940660003116662 5.2726536024016060 0.0000000000000000 12.0000000000000000 121
12.0226407118992231  -2.2950421498086331 5.2770951750589647 0.0000000000000000 12.0000000000000000 122
12.1206062108999220  -2.2960145490722246 5.2815234140489515 0.0000000000000000 12.0000000000000000 123
12.2185644645961720  -2.2969833910187174 5.2859390669868009 0.0000000000000000 12.0000000000000000 124
12.3165154153996443  -2.2979488571433757 5.2903428354723605 0.0000000000000000 12.0000000000000000 125
12.4144590089138109  -2.2989111180003357 5.2947353769336081 0.0000000000000000 12.0000000000000000 126
12.5123951939163103  -2.2998703336590678 5.2991173063845105 0.0000000000000000 12.0000000000000000 127
12.6103239223417347  -2.3008266541388598 5.3034891981023913 0.0000000000000000 12.0000000000000000 128
12.7082451492647248  -2.3017802198226693 5.3078515872295435 0.0000000000000000 12.0000000000000000 129
12.8061588328832556  -2.3027311618516020 5.3122049713036201 0.0000000000000000 12.0000000000000000 130
12.9040649345020526  -2.3036796025011750 5.3165498117209307 0.0000000000000000 12.0000000000000000 131
13.0019634185160662  -2.3046256555404718 5.3208865351366201 0.0000000000000000 12.0000000000000000 132
13.0998542523938735  -2.3055694265751878 5.3252155348053503 0.0000000000000000 12.0000000000000000 133
13.1977374066610036  -2.3065110133755393 5.3295371718659528 0.0000000000000000 12.0000000000000000 134
13.2956128548830570  -2.3074505061899071 5.3338517765732707 0.0000000000000000 12.0000000000000000 135
13.3934805736485938  -2.3083879880450633 5.3381596494802128 0.0000000000000000 12.0000000000000000 136
13.4913405425516935  -2.3093235350337400 5.3424610625728226 0.0000000000000000 12.0000000000000000 137
13.5891927441741753  -2.3102572165902915 5.3467562603610830 0.0000000000000000 12.0000000000000000 138
13.6870371640673678  -2.3111890957551089 5.3510454609278817 0.0000000000000000 12.0000000000000000 139
13.7848737907333945  -2.3121192294284465 5.3553288569385371 0.0000000000000000 12.0000000000000000 140
13.8827026156059876  -2.3130476686142396 5.3596066166130338 0.0000000000000000 12.0000000000000000 141
13.9805236330306446  -2.3139744586544908 5.3638788846630607 0.0000000000000000 12.0000000000000000 142
14.0783368402442335  -2.3148996394547421 5.3681457831957955 0.0000000000000000 12.0000000000000000 143
14.1761422373539077  -2.3158232457011212 5.3724074125862007 0.0000000000000000 12.0000000000000000 144
14.2739398273153171  -2.3167453070694375 5.3766638523196102 0.0000000000000000 12.0000000000000000 145
14.3717296159101053  -2.3176658484267456 5.3809151618061470 0.0000000000000000 12.0000000000000000 146
14.4695116117226217  -2.3185848900257922 5.3851613811685120 0.0000000000000000 12.0000000000000000 147
14.5672858261158211  -2.3195024476927291 5.3894025320045316 0.0000000000000000 12.0000000000000000 148
14.6650522732063617  -2.3204185330084313 5.3936386181257969 0.0000000000000000 12.0000000000000000 149
14.7628109698388315  -2.3213331534837884 5.3978696262736499 0.0000000000000000 12.0000000000000000 150
14.8605619355590797  -2.3222463127292388 5.4020955268136213 0.0000000000000000 12.0000000000000000 151
14.9583051925866801  -2.3231580106188803 5.4063162744094893 0.0000000000000000 12.0000000000000000 152
15.0560407657864435  -2.3240682434494113 5.4105318086779102 0.0000000000000000 12.0000000000000000 153
15.1537686826390008  -2.3249770040941642 5.4147420548246190 0.0000000000000000 12.0000000000000000 154
15.2514889732104475  -2.3258842821524706 5.4189469242630599 0.0000000000000000 12.0000000000000000 155
15.3492016701210190  -2.3267900640945891 5.4231463152162949 0.0000000000000000 12.0000000000000000 156
15.4469068085127681  -2.3276943334024032 5.4273401133029768 0.0000000000000000 12.0000000000000000 157
15.5446044260163099  -2.3285970707060848 5.4315281921080940 0.0000000000000000 12.0000000000000000 158
15.6422945627165451  -2.3294982539169133 5.4357104137391712 0.0000000000000000 12.0000000000000000 159
15.7399772611174082  -2.3303978583564140 5.4398866293685595 0.0000000000000000 12.0000000000000000 160
15.8376525661056444  -2.3312958568819839 5.4440566797623955 0.0000000000000000 12.0000000000000000 161
15.9353205249135783  -2.3321922200091509 5.4482203957967759 0.0000000000000000 12.0000000000000000 162
16.0329811870809245  -2.3330869160306040 5.4523775989616476 0.0000000000000000 12.0000000000000000 163
16.1306346044156221  -2.3339799111321256 5.4565281018528911 0.0000000000000000 12.0000000000000000 164
16.2282808309536968  -2.3348711695055533 5.4606717086530150 0.0000000000000000 12.0000000000000000 165
16.3259199229181924  -2.3357606534588671 5.4648082156008737 0.0000000000000000 12.0000000000000000 166
16.4235519386771465  -2.3366483235235167 5.4689374114507592 0.0000000000000000 12.0000000000000000 167
16.5211769387006662  -2.3375341385590955 5.4730590779212394 0.0000000000000000 12.0000000000000000 168
16.6187949855170771  -2.3384180558554184 5.4771729901340027 0.0000000000000000 12.0000000000000000 169
16.7164061436682267  -2.3393000312321210 5.4812789170430456 0.0000000000000000 12.0000000000000000 170
16.8140104796638923  -2.3401800191358335 5.4853766218544227 0.0000000000000000 12.0000000000000000 171
16.9116080619353646  -2.3410579727350123 5.4894658624368358 0.0000000000000000 12.0000000000000000 172
17.0091989607882326  -2.3419338440124786 5.4935463917232408 0.0000000000000000 12.0000000000000000 173
17.1067832483543860  -2.3428075838557429 5.4976179581036870 0.0000000000000000 12.0000000000000000 174
17.2043609985432546  -2.3436791421451586 5.5016803058095878 0.0000000000000000 12.0000000000000000 175
17.3019322869923116  -2.3445484678399469 5.5057331752895271 0.0000000000000000 12.0000000000000000 176
17.3994971910169625  -2.3454155090621605 5.5097763035768157 0.0000000000000000 12.0000000000000000 177
17.4970557895596635  -2.3462802131786100 5.5138094246488754 0.0000000000000000 12.0000000000000000 178
17.5946081631385276  -2.3471425268807975 5.5178322697785855 0.0000000000000000 12.0000000000000000 179
17.6921543937953061  -2.3480023962628951 5.5218445678777091 0.0000000000000000 12.0000000000000000 180
17.7896945650428151  -2.3488597668977880 5.5258460458324521 0.0000000000000000 12.0000000000000000 181
17.8872287618118868  -2.3497145839112408 5.5298364288312971 0.0000000000000000 12.0000000000000000 182
17.9847570703978548  -2.3505667920541695 5.5338154406851174 0.0000000000000000 12.0000000000000000 183
18.0822795784065882  -2.3514163357730915 5.5377828041396988 0.0000000000000000 12.0000000000000000 184
18.1797963747002065  -2.3522631592787286 5.5417382411806457 0.0000000000000000 12.0000000000000000 185
18.2773075493424031  -2.3531072066128318 5.5456814733308377 0.0000000000000000 12.0000000000000000 186
18.3748131935435239  -2.3539484217131976 5.5496122219403459 0.0000000000000000 12.0000000000000000 187
18.4723133996053512  -2.3547867484769398 5.5535302084689517 0.0000000000000000 12.0000000000000000 188
18.5698082608657629  -2.3556221308219851 5.5574351547612411 0.0000000000000000 12.0000000000000000 189
18.6672978716431537  -2.3564545127468546 5.5613267833143345 0.0000000000000000 12.0000000000000000 190
18.7647823271808143  -2.3572838383887040 5.5652048175382660 0.0000000000000000 12.0000000000000000 191
18.8622617235912244  -2.3581100520796641 5.5690689820090373 0.0000000000000000 12.0000000000000000 192
18.9597361578003110  -2.3589330984014740 5.5729190027143698 0.0000000000000000 12.0000000000000000 193
19.0572057274917945  -2.3597529222384299 5.5767546072921732 0.0000000000000000 12.0000000000000000 194
19.1546705310515399  -2.3605694688286571 5.5805755252617546 0.0000000000000000 12.0000000000000000 195
