 # inv_tmp, energy, phys_var, phys_doublon, phys_num, step_i
0.1104473708733461  -0.1081721021088884 1.1070562699161490 0.0000000000000000 12.0000000000000000 1
0.2194369607143135  -0.2284697481188102 1.1283960661984005 0.0000000000000000 12.0000000000000000 2
0.3270521117140628  -0.3457002266529229 1.1701857914481202 0.0000000000000000 12.0000000000000000 3
0.4333868620471309  -0.4592582299599035 1.2307290377782860 0.0000000000000000 12.0000000000000000 4
0.5385417613414514  -0.5686621128341909 1.3080040473594734 0.0000000000000000 12.0000000000000000 5
0.6426202171151978  -0.6735488246378141 1.3997838564410809 0.0000000000000000 12.0000000000000000 6
0.7457254879646251  -0.7736643388862112 1.5037478618813371 0.0000000000000000 12.0000000000000000 7
0.8479583408462074  -0.8688514863041966 1.6175784136706939 0.0000000000000000 12.0000000000000000 8
0.9494153233894105  -0.9590367424659224 1.7390390661663155 0.0000000000000000 12.0000000000000000 9
1.0501875665631215  -1.0442170872891419 1.8660336322036992 0.0000000000000000 12.0000000000000000 10
1.1503600214192182  -1.1244476427981542 1.9966470019549969 0.0000000000000000 12.0000000000000000 11
1.2500110375863744  -1.1998304641703004 2.1291698212663666 0.0000000000000000 12.0000000000000000 12
1.3492122031263356  -1.2705046246646257 2.2621096858549197 0.0000000000000000 12.0000000000000018 13
1.4480283798252507  -1.3366375895057179 2.3941916491296347 0.0000000000000000 12.0000000000000036 14
1.5465178817289540  -1.3984177967997544 2.5243507073235811 0.0000000000000000 11.9999999999999964 15
1.6447327562789786  -1.4560483323724689 2.6517186338578846 0.0000000000000000 11.9999999999999964 16
1.7427191364630199  -1.5097415806230094 2.7756071710156833 0.0000000000000000 12.0000000000000000 17
1.8405176392631937  -1.5597147411266974 2.8954892079110741 0.0000000000000000 12.0000000000000018 18
1.9381637908830949  -1.6061861122097805 3.0109792139149012 0.0000000000000000 12.0000000000000000 19
2.0356884632603287  -1.6493720536867360 3.1218138749106186 0.0000000000000000 11.9999999999999982 20
2.1331183096111017  -1.6894845498078377 3.2278336043280813 0.0000000000000000 12.0000000000000000 21
2.2304761894623639  -1.7267293001705624 3.3289653735960387 0.0000000000000000 12.0000000000000000 22
2.3277815759507221  -1.7613042715197593 3.4252071252732308 0.0000000000000000 12.0000000000000000 23
2.4250509401777087  -1.7933986477341954 3.5166138922582331 0.0000000000000000 12.0000000000000000 24
2.5222981091382466  -1.8231921194607352 3.6032856426555702 0.0000000000000000 12.0000000000000000 25
2.6195345951961353  -1.8508544591702702 3.6853567962701126 0.0000000000000000 12.0000000000000000 26
2.7167698962770497  -1.8765453320133552 3.7629873096401765 0.0000000000000000 11.9999999999999982 27
2.8140117669000553  -1.9004142977305991 3.8363551967765979 0.0000000000000000 12.0000000000000000 28
2.9112664608935419  -1.9226009639111901 3.9056503377428067 0.0000000000000000 12.0000000000000000 29
3.0085389471663899  -1.9432352559408770 3.9710694229740096 0.0000000000000000 12.0000000000000000 30
3.1058331002591535  -1.9624377738863916 4.0328118845724976 0.0000000000000000 12.0000000000000018 31
3.2031518676128083  -1.9803202111977445 4.0910766741663078 0.0000000000000000 12.0000000000000000 32
3.3004974155928104  -1.9969858143777941 4.1460597582996517 0.0000000000000000 12.0000000000000000 33
3.3978712563199882  -2.0125298666101750 4.1979522152563007 0.0000000000000000 12.0000000000000000 34
3.4952743573100138  -2.0270401817248089 4.2469388306361315 0.0000000000000000 12.0000000000000000 35
3.5927072358289380  -2.0405975978133357 4.2931971021761193 0.0000000000000000 11.9999999999999982 36
3.6901700397491881  -2.0532764623035105 4.3368965767538779 0.0000000000000000 12.0000000000000000 37
3.7876626165506884  -2.0651451023932368 4.3781984539514411 0.0000000000000000 12.0000000000000000 38
3.8851845719646971  -2.0762662764709305 4.4172554008482479 0.0000000000000000 12.0000000000000000 39
3.9827353196103763  -2.0866976035520866 4.4542115318134758 0.0000000000000000 12.0000000000000000 40
4.0803141228308375  -2.0964919688854975 4.4892025150040213 0.0000000000000000 12.0000000000000000 41
4.1779201297996220  -2.1056979047679252 4.5223557741134188 0.0000000000000000 12.0000000000000000 42
4.2755524028422460  -2.1143599462913922 4.5537907597502656 0.0000000000000000 12.0000000000000036 43
4.3732099428016120  -2.1225189622669958 4.5836192697561122 0.0000000000000000 11.9999999999999982 44
4.4708917091710871  -2.1302124619534117 4.6119458019079627 0.0000000000000000 12.0000000000000000 45
4.5685966366248119  -2.1374748784930517 4.6388679258925700 0.0000000000000000 11.9999999999999982 46
4.6663236484908115  -2.1443378301463500 4.6644766642851891 0.0000000000000000 12.0000000000000000 47
4.7640716676381949  -2.1508303605332468 4.6888568746016830 0.0000000000000000 11.9999999999999982 48
4.8618396251843228  -2.1569791591561618 4.7120876263988336 0.0000000000000000 11.9999999999999982 49
4.9596264673705495  -2.1628087635029321 4.7342425689419168 0.0000000000000000 12.0000000000000000 50
5.0574311609051579  -2.1683417440217720 4.7553902862011359 0.0000000000000000 12.0000000000000000 51
5.1552526970286756  -2.1735988732312390 4.7755946369308493 0.0000000000000000 12.0000000000000018 52
5.2530900945190808  -2.1785992801831604 4.7949150783713224 0.0000000000000000 12.0000000000000000 53
5.3509424018218965  -2.1833605914404908 4.8134069727292506 0.0000000000000000 12.0000000000000000 54
5.4488086984620914  -2.1878990596691574 4.8311218760714887 0.0000000000000000 12.0000000000000000 55
5.5466880958705440  -2.1922296808762192 4.8481078096324097 0.0000000000000000 12.0000000000000000 56
5.6445797377371427  -2.1963663012583288 4.8644095138106298 0.0000000000000000 11.9999999999999982 57
5.7424827999848187  -2.2003217145564022 4.8800686853333461 0.0000000000000000 12.0000000000000000 58
5.8403964904436094  -2.2041077507457492 4.8951241982110236 0.0000000000000000 12.0000000000000000 59
5.9383200482908824  -2.2077353568266154 4.9096123092036041 0.0000000000000000 12.0000000000000000 60
6.0362527433128497  -2.2112146704187312 4.9235668485816841 0.0000000000000000 12.0000000000000018 61
6.1341938750330360  -2.2145550868054698 4.9370193970002472 0.0000000000000000 12.0000000000000000 62
6.2321427717454210  -2.2177653200187337 4.9499994493149941 0.0000000000000000 12.0000000000000000 63
6.3300987894832597  -2.2208534585048589 4.9625345661672871 0.0000000000000000 12.0000000000000000 64
6.4280613109487721  -2.2238270158646323 4.9746505141475357 0.0000000000000000 11.9999999999999982 65
6.5260297444241750  -2.2266929771168300 4.9863713953216218 0.0000000000000000 12.0000000000000018 66
6.6240035226804270  -2.2294578408944457 4.9977197668735478 0.0000000000000000 11.9999999999999964 67
6.7219821018966543  -2.2321276579458091 5.0087167515819786 0.0000000000000000 12.0000000000000000 68
6.8199649606004042  -2.2347080662788317 5.0193821398100535 0.0000000000000000 12.0000000000000000 69
6.9179515986364963  -2.2372043232556726 5.0297344836486175 0.0000000000000000 12.0000000000000000 70
7.0159415361702617  -2.2396213349167202 5.0397911838131577 0.0000000000000000 12.0000000000000000 71
7.1139343127293539  -2.2419636827870177 5.0495685698554933 0.0000000000000000 12.0000000000000000 72
7.2119294862869872  -2.2442356483947119 5.0590819742129174 0.0000000000000000 11.9999999999999982 73
7.3099266323883354  -2.2464412357097387 5.0683458005804436 0.0000000000000000 12.0000000000000000 74
7.4079253433209651  -2.2485841916915370 5.0773735870564316 0.0000000000000000 12.0000000000000000 75
7.5059252273295005  -2.2506680251169260 5.0861780644781955 0.0000000000000000 12.0000000000000000 76
7.6039259078740589  -2.2526960238432983 5.0947712103324765 0.0000000000000000 12.0000000000000000 77
7.7019270229316792  -2.2546712706477710 5.1031642985957815 0.0000000000000000 12.0000000000000000 78
7.7999282243395101  -2.2565966577697925 5.1113679458316685 0.0000000000000000 11.9999999999999982 79
7.8979291771783622  -2.2584749002727937 5.1193921538460421 0.0000000000000000 12.0000000000000018 80
7.9959295591949804  -2.2603085483296779 5.1272463491772466 0.0000000000000000 11.9999999999999964 81
8.0939290602613010  -2.2620999985272290 5.1349394196754137 0.0000000000000000 12.0000000000000000 82
8.1919273818688705  -2.2638515042756007 5.1424797484045621 0.0000000000000000 12.0000000000000000 83
8.2899242366565424  -2.2655651854011469 5.1498752450819980 0.0000000000000000 11.9999999999999982 84
8.3879193479695857  -2.2672430369935412 5.1571333752516564 0.0000000000000000 12.0000000000000000 85
8.4859124494483460  -2.2688869375716223 5.1642611873718955 0.0000000000000000 12.0000000000000000 86
8.5839032846446006  -2.2704986566264793 5.1712653379832378 0.0000000000000000 12.0000000000000000 87
8.6818916066638412  -2.2720798615949160 5.1781521151077605 0.0000000000000000 12.0000000000000000 88
8.7798771778317626  -2.2736321243115682 5.1849274600192965 0.0000000000000000 12.0000000000000000 89
8.8778597693832566  -2.2751569269836045 5.1915969875119767 0.0000000000000000 12.0000000000000018 90
8.9758391611723845  -2.2766556677278915 5.1981660047840554 0.0000000000000000 12.0000000000000000 91
9.0738151414017487  -2.2781296657069858 5.2046395290442806 0.0000000000000000 12.0000000000000000 92
9.1717875063698671  -2.2795801658969710 5.2110223039391155 0.0000000000000000 11.9999999999999964 93
9.2697560602351974  -2.2810083435172874 5.2173188148910690 0.0000000000000000 11.9999999999999982 94
9.3677206147954948  -2.2824153081499485 5.2235333034308473 0.0000000000000000 12.0000000000000000 95
9.4656809892813296  -2.2838021075731776 5.2296697805993286 0.0000000000000000 11.9999999999999982 96
9.5636370101626351  -2.2851697313322554 5.2357320394890703 0.0000000000000000 11.9999999999999982 97
9.6615885109672135  -2.2865191140683940 5.2417236669893841 0.0000000000000000 12.0000000000000000 98
9.7595353321102323  -2.2878511386246410 5.2476480547938031 0.0000000000000000 12.0000000000000000 99
9.8574773207337607  -2.2891666389461820 5.2535084097240263 0.0000000000000000 12.0000000000000036 100
9.9554143305555307  -2.2904664027908930 5.2593077634200132 0.0000000000000000 12.0000000000000000 101
10.0533462217261000  -2.2917511742646841 5.2650489814419963 0.0000000000000000 12.0000000000000000 102
10.1512728606936591  -2.2930216561949028 5.2707347718264543 0.0000000000000000 12.0000000000000000 103
10.2491941200758525  -2.2942785123539675 5.2763676931348069 0.0000000000000000 12.0000000000000018 104
10.3471098785379176  -2.2955223695443845 5.2819501620305136 0.0000000000000000 12.0000000000000000 105
10.4450200206765906  -2.2967538195553820 5.2874844604174900 0.0000000000000000 12.0000000000000000 106
10.5429244369092103  -2.2979734210005169 5.2929727421701376 0.0000000000000000 12.0000000000000018 107
10.6408230233675578  -2.2991817010449007 5.2984170394830183 0.0000000000000000 12.0000000000000036 108
10.7387156817959042  -2.3003791570299312 5.3038192688659684 0.0000000000000000 12.0000000000000018 109
10.8366023194528918  -2.3015662580028264 5.3091812368085689 0.0000000000000000 11.9999999999999982 110
10.9344828490168489  -2.3027434461576441 5.3145046451359708 0.0000000000000000 12.0000000000000036 111
11.0323571884941316  -2.3039111381939428 5.3197910960765018 0.0000000000000000 11.9999999999999982 112
11.1302252611301995  -2.3050697265987932 5.3250420970599599 0.0000000000000000 12.0000000000000000 113
11.2280869953231335  -2.3062195808573183 5.3302590652639719 0.0000000000000000 11.9999999999999982 114
11.3259423245392217  -2.3073610485966518 5.3354433319247079 0.0000000000000000 11.9999999999999982 115
11.4237911872304903  -2.3084944566677219 5.3405961464268756 0.0000000000000000 12.0000000000000018 116
11.5216335267538224  -2.3096201121689939 5.3457186801869172 0.0000000000000000 12.0000000000000000 117
11.6194692912914963  -2.3107383034159881 5.3508120303423601 0.0000000000000000 12.0000000000000000 118
11.7172984337729584  -2.3118493008600627 5.3558772232592258 0.0000000000000000 12.0000000000000000 119
11.8151209117976297  -2.3129533579597403 5.3609152178686861 0.0000000000000000 12.0000000000000000 120
11.9129366875585507  -2.3140507120075808 5.3659269088432833 0.0000000000000000 12.0000000000000018 121
12.0107457277667873  -2.3151415849153958 5.3709131296223314 0.0000000000000000 12.0000000000000000 122
12.1085480035763897  -2.3162261839603948 5.3758746552954335 0.0000000000000000 12.0000000000000000 123
12.2063434905098056  -2.3173047024946651 5.3808122053524681 0.0000000000000000 12.0000000000000000 124
12.3041321683836546  -2.3183773206202072 5.3857264463077534 0.0000000000000000 12.0000000000000000 125
12.4019140212347363  -2.3194442058316129 5.3906179942056589 0.0000000000000000 12.0000000000000000 126
12.4996890372461777  -2.3205055136282891 5.3954874170143450 0.0000000000000000 12.0000000000000000 127
12.5974572086736671  -2.3215613880980301 5.4003352369139339 0.0000000000000000 12.0000000000000000 128
12.6952185317716957  -2.3226119624736001 5.4051619324849742 0.0000000000000000 12.0000000000000000 129
12.7929730067197003  -2.3236573596638657 5.4099679408026171 0.0000000000000000 12.0000000000000000 130
12.8907206375481209  -2.3246976927609291 5.4147536594416472 0.0000000000000000 12.0000000000000018 131
12.9884614320642804  -2.3257330655246049 5.4195194483971010 0.0000000000000000 11.9999999999999964 132
13.0861954017780455  -2.3267635728454836 5.4242656319249321 0.0000000000000000 12.0000000000000000 133
13.1839225618272557  -2.3277893011877553 5.4289925003068653 0.0000000000000000 11.9999999999999982 134
13.2816429309029083  -2.3288103290128839 5.4337003115433449 0.0000000000000000 12.0000000000000000 135
13.3793565311739862  -2.3298267271851434 5.4383892929781830 0.0000000000000000 12.0000000000000000 136
13.4770633882120467  -2.3308385593599672 5.4430596428583282 0.0000000000000000 12.0000000000000036 137
13.5747635309154688  -2.3318458823559949 5.4477115318319278 0.0000000000000000 12.0000000000000000 138
13.6724569914333500  -2.3328487465116479 5.4523451043876463 0.0000000000000000 11.9999999999999982 139
13.7701438050891181  -2.3338471960270044 5.4569604802380374 0.0000000000000000 11.9999999999999982 140
13.8678240103037975  -2.3348412692916991 5.4615577556495838 0.0000000000000000 11.9999999999999964 141
13.9654976485189639  -2.3358309991995254 5.4661370047218316 0.0000000000000000 12.0000000000000000 142
14.0631647641193815  -2.3368164134503728 5.4706982806179258 0.0000000000000000 12.0000000000000018 143
14.1608254043553909  -2.3377975348400923 5.4752416167486899 0.0000000000000000 12.0000000000000000 144
14.2584796192649570  -2.3387743815388560 5.4797670279122537 0.0000000000000000 12.0000000000000000 145
14.3561274615955323  -2.3397469673585141 5.4842745113911437 0.0000000000000000 12.0000000000000000 146
14.4537689867256507  -2.3407153020094471 5.4887640480085604 0.0000000000000000 12.0000000000000018 147
14.5514042525863303  -2.3416793913473835 5.4932356031455765 0.0000000000000000 12.0000000000000018 148
14.6490333195823101  -2.3426392376105896 5.4976891277207516 0.0000000000000000 12.0000000000000000 149
14.7466562505131424  -2.3435948396478565 5.5021245591336818 0.0000000000000000 11.9999999999999982 150
14.8442731104941839  -2.3445461931376492 5.5065418221738325 0.0000000000000000 11.9999999999999982 151
14.9418839668774925  -2.3454932907987853 5.5109408298959721 0.0000000000000000 12.0000000000000000 152
15.0394888891727447  -2.3464361225929724 5.5153214844634313 0.0000000000000000 12.0000000000000000 153
15.1370879489680945  -2.3473746759195229 5.5196836779603302 0.0000000000000000 12.0000000000000000 154
15.2346812198511312  -2.3483089358025446 5.5240272931738597 0.0000000000000000 12.0000000000000000 155
15.3322687773299098  -2.3492388850708839 5.5283522043476561 0.0000000000000000 12.0000000000000000 156
15.4298506987541018  -2.3501645045310919 5.5326582779072142 0.0000000000000000 12.0000000000000018 157
15.5274270632363596  -2.3510857731336552 5.5369453731582716 0.0000000000000000 12.0000000000000000 158
15.6249979515738673  -2.3520026681327444 5.5412133429590300 0.0000000000000000 12.0000000000000018 159
15.7225634461701791  -2.3529151652396738 5.5454620343670005 0.0000000000000000 12.0000000000000018 160
15.8201236309573865  -2.3538232387703211 5.5496912892613093 0.0000000000000000 12.0000000000000000 161
15.9176785913186265  -2.3547268617866779 5.5539009449411347 0.0000000000000000 12.0000000000000000 162
16.0152284140110162  -2.3556260062327317 5.5580908347010176 0.0000000000000000 12.0000000000000000 163
16.1127731870890329  -2.3565206430648651 5.5622607883837025 0.0000000000000000 12.0000000000000018 164
16.2103129998284388  -2.3574107423769388 5.5664106329111434 0.0000000000000000 12.0000000000000000 165
16.3078479426506924  -2.3582962735202218 5.5705401927942741 0.0000000000000000 11.9999999999999964 166
16.4053781070480262  -2.3591772052183284 5.5746492906221370 0.0000000000000000 12.0000000000000000 167
16.5029035855091486  -2.3600535056773015 5.5787377475308970 0.0000000000000000 12.0000000000000000 168
16.6004244714456100  -2.3609251426910092 5.5828053836533318 0.0000000000000000 11.9999999999999982 169
16.6979408591189689  -2.3617920837419559 5.5868520185492274 0.0000000000000000 12.0000000000000000 170
16.7954528435686967  -2.3626542960976700 5.5908774716172402 0.0000000000000000 11.9999999999999982 171
16.8929605205409246  -2.3635117469027813 5.5948815624886770 0.0000000000000000 11.9999999999999982 172
16.9904639864180460  -2.3643644032669062 5.5988641114036364 0.0000000000000000 11.9999999999999982 173
17.0879633381492866  -2.3652122323484646 5.6028249395699738 0.0000000000000000 12.0000000000000000 174
17.1854586731821684  -2.3660552014345377 5.6067638695055226 0.0000000000000000 12.0000000000000000 175
17.2829500893949870  -2.3668932780168781 5.6106807253639648 0.0000000000000000 12.0000000000000000 176
17.3804376850303477  -2.3677264298641787 5.6145753332447992 0.0000000000000000 12.0000000000000000 177
17.4779215586297347  -2.3685546250906904 5.6184475214877478 0.0000000000000000 11.9999999999999982 178
17.5754018089692181  -2.3693778322213142 5.6222971209520463 0.0000000000000000 12.0000000000000000 179
17.6728785349962791  -2.3701960202532351 5.6261239652809429 0.0000000000000000 11.9999999999999982 180
17.7703518357678121  -2.3710091587142137 5.6299278911518122 0.0000000000000000 12.0000000000000000 181
17.8678218103893443  -2.3718172177176147 5.6337087385122304 0.0000000000000000 12.0000000000000018 182
17.9652885579554855  -2.3726201680142722 5.6374663508023719 0.0000000000000000 12.0000000000000000 183
18.0627521774916140  -2.3734179810412694 5.6412005751640706 0.0000000000000000 12.0000000000000000 184
18.1602127678968799  -2.3742106289677269 5.6449112626369020 0.0000000000000000 12.0000000000000018 185
18.2576704278885060  -2.3749980847376744 5.6485982683415994 0.0000000000000000 11.9999999999999964 186
18.3551252559474349  -2.3757803221101073 5.6522614516511940 0.0000000000000000 12.0000000000000036 187
18.4525773502653081  -2.3765573156962780 5.6559006763501145 0.0000000000000000 12.0000000000000018 188
18.5500268086928308  -2.3773290409943408 5.6595158107816790 0.0000000000000000 12.0000000000000018 189
18.6474737286895405  -2.3780954744213858 5.6631067279842178 0.0000000000000000 12.0000000000000000 190
18.7449182072749494  -2.3788565933429808 5.6666733058161878 0.0000000000000000 12.0000000000000000 191
18.8423603409811378  -2.3796123761002623 5.6702154270705707 0.0000000000000000 12.0000000000000000 192
18.9398002258067599  -2.3803628020346732 5.6737329795788813 0.0000000000000000 12.0000000000000000 193
19.0372379571724828  -2.3811078515104076 5.6772258563050881 0.0000000000000000 12.0000000000000000 194
19.1346736298778843  -2.3818475059346444 5.6806939554297404 0.0000000000000000 12.0000000000000000 195
