 # inv_tmp, energy, phys_var, phys_doublon, phys_num, step_i
0.1103718125426036  -0.1205685937974264 1.1523953503586362 0.0000000000000000 12.0000000000000000 1
0.2192313432454221  -0.2455662624943895 1.1825751472145045 0.0000000000000000 12.0000000000000000 2
0.3266587432908268  -0.3677924538457947 1.2342881340702261 0.0000000000000000 12.0000000000000000 3
0.4327483515325530  -0.4864944526500605 1.3057001936536921 0.0000000000000000 12.0000000000000000 4
0.5376043176810027  -0.6010410837765703 1.3945818543702471 0.0000000000000000 12.0000000000000000 5
0.6413364614402677  -0.7109274483650208 1.4984449113603642 0.0000000000000000 12.0000000000000000 6
0.7440565835497017  -0.8157733020916458 1.6146750939016887 0.0000000000000000 12.0000000000000000 7
0.8458753531068310  -0.9153164721413253 1.7406511696303970 0.0000000000000000 12.0000000000000000 8
0.9468998178574102  -1.0094027483597499 1.8738442384840264 0.0000000000000000 12.0000000000000000 9
1.0472315260265013  -1.0979735645333122 2.0118942303736702 0.0000000000000000 12.0000000000000000 10
1.1469652098935714  -1.1810525813955683 2.1526633551840879 0.0000000000000000 12.0000000000000000 11
1.2461879596879846  -1.2587320503473798 2.2942682593204968 0.0000000000000000 12.0000000000000000 12
1.3449788073720010  -1.3311596119512581 2.4350938964037736 0.0000000000000000 12.0000000000000000 13
1.4434086395186752  -1.3985259845313065 2.5737927137638366 0.0000000000000000 12.0000000000000000 14
1.5415403635582083  -1.4610538323845885 2.7092728405802351 0.0000000000000000 12.0000000000000000 15
1.6394292597898246  -1.5189879703027938 2.8406786990236852 0.0000000000000000 12.0000000000000000 16
1.7371234611020978  -1.5725869584589547 2.9673669914856680 0.0000000000000000 12.0000000000000000 17
1.8346645122266843  -1.6221160654095532 3.0888804602090860 0.0000000000000000 12.0000000000000000 18
1.9320879698673945  -1.6678415230793358 3.2049212527341009 0.0000000000000000 12.0000000000000000 19
2.0294240137642392  -1.7100259623944982 3.3153252099154011 0.0000000000000000 12.0000000000000000 20
2.1266980464254828  -1.7489248981974079 3.4200379509429188 0.0000000000000000 12.0000000000000000 21
2.2239312657825123  -1.7847841239455582 3.5190932721093007 0.0000000000000000 12.0000000000000000 22
2.3211412003855409  -1.8178378774886328 3.6125941014972573 0.0000000000000000 12.0000000000000000 23
2.4183422010266860  -1.8483076462967136 3.7006960518526784 0.0000000000000000 12.0000000000000000 24
2.5155458859600914  -1.8764014916455538 3.7835934769026949 0.0000000000000000 12.0000000000000000 25
2.6127615393203043  -1.9023137846431677 3.8615078496774342 0.0000000000000000 12.0000000000000000 26
2.7099964640619576  -1.9262252612169517 3.9346782330968035 0.0000000000000000 12.0000000000000000 27
2.8072562918934350  -1.9483033172682618 4.0033535927877111 0.0000000000000000 12.0000000000000000 28
2.9045452533803076  -1.9687024784687503 4.0677867012185702 0.0000000000000000 12.0000000000000000 29
3.0018664117601364  -1.9875649912146356 4.1282293940151531 0.0000000000000000 12.0000000000000000 30
3.0992218641300719  -2.0050214918714535 4.1849289586455134 0.0000000000000000 12.0000000000000000 31
3.1966129136165371  -2.0211917205804610 4.2381254588226716 0.0000000000000000 12.0000000000000000 32
3.2940402159698046  -2.0361852536062059 4.2880498223940187 0.0000000000000000 12.0000000000000000 33
3.3915039037896855  -2.0501022345916868 4.3349225444624224 0.0000000000000000 12.0000000000000000 34
3.4890036913141640  -2.0630340902946651 4.3789528799661452 0.0000000000000000 12.0000000000000000 35
3.5865389624139219  -2.0750642205599705 4.4203384203538194 0.0000000000000000 12.0000000000000000 36
3.6841088441482306  -2.0862686555909500 4.4592649670743221 0.0000000000000000 12.0000000000000000 37
3.7817122679621269  -2.0967166761617650 4.4959066303242317 0.0000000000000000 12.0000000000000000 38
3.8793480203474560  -2.1064713943901023 4.5304260949581341 0.0000000000000000 12.0000000000000000 39
3.9770147845547443  -2.1155902941800564 4.5629750068486441 0.0000000000000000 12.0000000000000000 40
4.0747111747302673  -2.1241257315441819 4.5936944425012358 0.0000000000000000 12.0000000000000000 41
4.1724357636631346  -2.1321253958031754 4.6227154326132132 0.0000000000000000 12.0000000000000000 42
4.2701871051597005  -2.1396327332086997 4.6501595167412306 0.0000000000000000 12.0000000000000000 43
4.3679637519158208  -2.1466873348943354 4.6761393115173187 0.0000000000000000 12.0000000000000000 44
4.4657642696294557  -2.1533252912760004 4.7007590791190843 0.0000000000000000 12.0000000000000000 45
4.5635872479852324  -2.1595795151318464 4.7241152861233440 0.0000000000000000 12.0000000000000000 46
4.6614313090467636  -2.1654800356207469 4.7462971455992324 0.0000000000000000 12.0000000000000000 47
4.7592951135101833  -2.1710542654699791 4.7673871374513386 0.0000000000000000 12.0000000000000000 48
4.8571773652016690  -2.1763272434938248 4.7874615037109454 0.0000000000000000 12.0000000000000000 49
4.9550768141413783  -2.1813218545085502 4.8065907167822175 0.0000000000000000 12.0000000000000000 50
5.0529922584445917  -2.1860590285957722 4.8248399196536322 0.0000000000000000 12.0000000000000000 51
5.1509225452870728  -2.1905579215429327 4.8422693378435797 0.0000000000000000 12.0000000000000000 52
5.2488665711242790  -2.1948360781621803 4.8589346634127413 0.0000000000000000 12.0000000000000000 53
5.3468232813224787  -2.1989095800614078 4.8748874117851155 0.0000000000000000 12.0000000000000000 54
5.4447916693330427  -2.2027931793163349 4.8901752524073210 0.0000000000000000 12.0000000000000000 55
5.5427707755185036  -2.2065004193724511 4.9048423144689464 0.0000000000000000 12.0000000000000000 56
5.6407596857199289  -2.2100437443915317 4.9189294690264065 0.0000000000000000 12.0000000000000000 57
5.7387575296390274  -2.2134345981501129 4.9324745889364312 0.0000000000000000 12.0000000000000000 58
5.8367634790948690  -2.2166835134972378 4.9455127880265630 0.0000000000000000 12.0000000000000000 59
5.9347767462037844  -2.2198001932859097 4.9580766409196766 0.0000000000000000 12.0000000000000000 60
6.0327965815214943  -2.2227935836071437 4.9701963848962869 0.0000000000000000 12.0000000000000000 61
6.1308222721785475  -2.2256719400768761 4.9819001051288696 0.0000000000000000 12.0000000000000000 62
6.2288531400335785  -2.2284428878541123 4.9932139045619319 0.0000000000000000 12.0000000000000000 63
6.3268885398634049  -2.2311134760030837 5.0041620596440257 0.0000000000000000 12.0000000000000000 64
6.4249278576043931  -2.2336902267525192 5.0147671630466393 0.0000000000000000 12.0000000000000000 65
6.5229705086558400  -2.2361791801509558 5.0250502544319868 0.0000000000000000 12.0000000000000000 66
6.6210159362530039  -2.2385859345679062 5.0350309402591620 0.0000000000000000 12.0000000000000000 67
6.7190636099149188  -2.2409156834462718 5.0447275035469419 0.0000000000000000 12.0000000000000000 68
6.8171130239701165  -2.2431732486712166 5.0541570044428550 0.0000000000000000 12.0000000000000000 69
6.9151636961617111  -2.2453631108844947 5.0633353723824568 0.0000000000000000 12.0000000000000000 70
7.0132151663320359  -2.2474894370404805 5.0722774905604506 0.0000000000000000 12.0000000000000000 71
7.1112669951859493  -2.2495561054707105 5.0809972733767133 0.0000000000000000 12.0000000000000000 72
7.2093187631311917  -2.2515667286971848 5.0895077374654125 0.0000000000000000 12.0000000000000000 73
7.3073700691935084  -2.2535246742107713 5.0978210668642818 0.0000000000000000 12.0000000000000000 74
7.4054205300038394  -2.2554330834095424 5.1059486728336658 0.0000000000000000 12.0000000000000000 75
7.5034697788545568  -2.2572948888725426 5.1139012487911124 0.0000000000000000 12.0000000000000000 76
7.6015174648214927  -2.2591128301270582 5.1216888207868099 0.0000000000000000 12.0000000000000000 77
7.6995632519483941  -2.2608894680518135 5.1293207939079064 0.0000000000000000 12.0000000000000000 78
7.7976068184903724  -2.2626271980444637 5.1368059949656626 0.0000000000000000 12.0000000000000000 79
7.8956478562128938  -2.2643282620690703 5.1441527117879566 0.0000000000000000 12.0000000000000000 80
7.9936860697429131  -2.2659947596878949 5.1513687294111108 0.0000000000000000 12.0000000000000000 81
8.0917211759688321  -2.2676286581716121 5.1584613634387528 0.0000000000000000 12.0000000000000000 82
8.1897529034860082  -2.2692318017728375 5.1654374908115255 0.0000000000000000 12.0000000000000000 83
8.2877809920847110  -2.2708059202396003 5.1723035782096964 0.0000000000000000 12.0000000000000000 84
8.3858051922775427  -2.2723526366379687 5.1790657082908247 0.0000000000000000 12.0000000000000000 85
8.4838252648634054  -2.2738734745463103 5.1857296039465570 0.0000000000000000 12.0000000000000000 86
8.5818409805253655  -2.2753698646776854 5.1923006507461995 0.0000000000000000 12.0000000000000000 87
8.6798521194597917  -2.2768431509814349 5.1987839177196893 0.0000000000000000 12.0000000000000000 88
8.7778584710343477  -2.2782945962701553 5.2051841766190332 0.0000000000000000 12.0000000000000000 89
8.8758598334725463  -2.2797253874138441 5.2115059197848517 0.0000000000000000 12.0000000000000000 90
8.9738560135627488  -2.2811366401390916 5.2177533767335049 0.0000000000000000 12.0000000000000000 91
9.0718468263895495  -2.2825294034675707 5.2239305295699507 0.0000000000000000 12.0000000000000000 92
9.1698320950856917  -2.2839046638249090 5.2300411273223002 0.0000000000000000 12.0000000000000000 93
9.2678116506027663  -2.2852633488481318 5.2360886992855651 0.0000000000000000 12.0000000000000000 94
9.3657853314990369  -2.2866063309172207 5.2420765674544167 0.0000000000000000 12.0000000000000000 95
9.4637529837428911  -2.2879344304340110 5.2480078581178127 0.0000000000000000 12.0000000000000000 96
9.5617144605304851  -2.2892484188695224 5.2538855126820962 0.0000000000000000 12.0000000000000000 97
9.6596696221162919  -2.2905490215988631 5.2597122977832873 0.0000000000000000 12.0000000000000000 98
9.7576183356553177  -2.2918369205411624 5.2654908147441954 0.0000000000000000 12.0000000000000000 99
9.8555604750558761  -2.2931127566203799 5.2712235084271288 0.0000000000000000 12.0000000000000000 100
9.9534959208418634  -2.2943771320614434 5.2769126755287195 0.0000000000000000 12.0000000000000000 101
10.0514245600236087  -2.2956306125348709 5.2825604723594113 0.0000000000000000 12.0000000000000000 102
10.1493462859763444  -2.2968737291618853 5.2881689221465766 0.0000000000000000 12.0000000000000000 103
10.2472609983255563  -2.2981069803909602 5.2937399218970072 0.0000000000000000 12.0000000000000000 104
10.3451686028383989  -2.2993308337558078 5.2992752488515116 0.0000000000000000 12.0000000000000000 105
10.4430690113205067  -2.3005457275239265 5.3047765665616584 0.0000000000000000 12.0000000000000000 106
10.5409621415175465  -2.3017520722440556 5.3102454306162397 0.0000000000000000 12.0000000000000000 107
10.6388479170209518  -2.3029502522001906 5.3156832940427972 0.0000000000000000 12.0000000000000000 108
10.7367262671772448  -2.3041406267791209 5.3210915124074436 0.0000000000000000 12.0000000000000000 109
10.8345971270005013  -2.3053235317579164 5.3264713486344206 0.0000000000000000 12.0000000000000000 110
10.9324604370874923  -2.3064992805172082 5.3318239775650138 0.0000000000000000 12.0000000000000000 111
11.0303161435350408  -2.3076681651856616 5.3371504902739861 0.0000000000000000 12.0000000000000000 112
11.1281641978592774  -2.3088304577205609 5.3424518981601743 0.0000000000000000 12.0000000000000000 113
11.2260045569164113  -2.3099864109290582 5.3477291368266364 0.0000000000000000 12.0000000000000000 114
11.3238371828246880  -2.3111362594342233 5.3529830697644734 0.0000000000000000 12.0000000000000000 115
11.4216620428872737  -2.3122802205897584 5.3582144918534400 0.0000000000000000 12.0000000000000000 116
11.5194791095157960  -2.3134184953468648 5.3634241326913470 0.0000000000000000 12.0000000000000000 117
11.6172883601542782  -2.3145512690765253 5.3686126597634010 0.0000000000000000 12.0000000000000000 118
11.7150897772032856  -2.3156787123501767 5.3737806814617475 0.0000000000000000 12.0000000000000000 119
11.8128833479440978  -2.3168009816815265 5.3789287499647083 0.0000000000000000 12.0000000000000000 120
11.9106690644626614  -2.3179182202320412 5.3840573639844642 0.0000000000000000 12.0000000000000000 121
12.0084469235732740  -2.3190305584824564 5.3891669713913348 0.0000000000000000 12.0000000000000000 122
12.1062169267417961  -2.3201381148724503 5.3942579717220909 0.0000000000000000 12.0000000000000000 123
12.2039790800082706  -2.3212409964104870 5.3993307185792965 0.0000000000000000 12.0000000000000000 124
12.3017333939088722  -2.3223392992556589 5.4043855219280665 0.0000000000000000 12.0000000000000000 125
12.3994798833971025  -2.3234331092732265 5.4094226502961824 0.0000000000000000 12.0000000000000000 126
12.4972185677640972  -2.3245225025654390 5.4144423328830928 0.0000000000000000 12.0000000000000000 127
12.5949494705580598  -2.3256075459790702 5.4194447615828665 0.0000000000000000 12.0000000000000000 128
12.6926726195027175  -2.3266882975910326 5.4244300929258529 0.0000000000000000 12.0000000000000000 129
12.7903880464147619  -2.3277648071732964 5.4293984499433963 0.0000000000000000 12.0000000000000000 130
12.8880957871202728  -2.3288371166382746 5.4343499239596706 0.0000000000000000 12.0000000000000000 131
12.9857958813700822  -2.3299052604657415 5.4392845763144031 0.0000000000000000 12.0000000000000000 132
13.0834883727540614  -2.3309692661122665 5.4442024400199713 0.0000000000000000 12.0000000000000000 133
13.1811733086143548  -2.3320291544040823 5.4491035213560863 0.0000000000000000 12.0000000000000000 134
13.2788507399575550  -2.3330849399142384 5.4539878014050984 0.0000000000000000 12.0000000000000000 135
13.3765207213658091  -2.3341366313248209 5.4588552375306643 0.0000000000000000 12.0000000000000000 136
13.4741833109069198  -2.3351842317749800 5.4637057648024054 0.0000000000000000 12.0000000000000000 137
13.5718385700434432  -2.3362277391954360 5.4685392973689222 0.0000000000000000 12.0000000000000000 138
13.6694865635408167  -2.3372671466300843 5.4733557297813942 0.0000000000000000 12.0000000000000000 139
13.7671273593745607  -2.3383024425453094 5.4781549382698511 0.0000000000000000 12.0000000000000000 140
13.8647610286366234  -2.3393336111275320 5.4829367819740256 0.0000000000000000 12.0000000000000000 141
13.9623876454408649  -2.3403606325694941 5.4877011041305597 0.0000000000000000 12.0000000000000000 142
14.0600072868277941  -2.3413834833457670 5.4924477332182660 0.0000000000000000 12.0000000000000000 143
14.1576200326685928  -2.3424021364779071 5.4971764840629405 0.0000000000000000 12.0000000000000000 144
14.2552259655684779  -2.3434165617896774 5.5018871589032159 0.0000000000000000 12.0000000000000000 145
14.3528251707694867  -2.3444267261527036 5.5065795484187543 0.0000000000000000 12.0000000000000000 146
14.4504177360527706  -2.3454325937229332 5.5112534327220555 0.0000000000000000 12.0000000000000000 147
14.5480037516404241  -2.3464341261682189 5.5159085823150544 0.0000000000000000 12.0000000000000000 148
14.6455833100969759  -2.3474312828873440 5.5205447590115710 0.0000000000000000 12.0000000000000000 149
14.7431565062305925  -2.3484240212207768 5.5251617168266813 0.0000000000000000 12.0000000000000000 150
14.8407234369940824  -2.3494122966534228 5.5297592028339144 0.0000000000000000 12.0000000000000000 151
14.9382842013857644  -2.3503960630096410 5.5343369579912212 0.0000000000000000 12.0000000000000000 152
15.0358389003503525  -2.3513752726407477 5.5388947179365342 0.0000000000000000 12.0000000000000000 153
15.1333876366798208  -2.3523498766052526 5.5434322137537171 0.0000000000000000 12.0000000000000000 154
15.2309305149144656  -2.3533198248420275 5.5479491727096883 0.0000000000000000 12.0000000000000000 155
15.3284676412441598  -2.3542850663366117 5.5524453189633727 0.0000000000000000 12.0000000000000000 156
15.4259991234099179  -2.3552455492808515 5.5569203742472242 0.0000000000000000 12.0000000000000000 157
15.5235250706058547  -2.3562012212260441 5.5613740585219045 0.0000000000000000 12.0000000000000000 158
15.6210455933816483  -2.3571520292297699 5.5658060906047755 0.0000000000000000 12.0000000000000000 159
15.7185608035455431  -2.3580979199965642 5.5702161887727524 0.0000000000000000 12.0000000000000000 160
15.8160708140679933  -2.3590388400126017 5.5746040713401381 0.0000000000000000 12.0000000000000000 161
15.9135757389860988  -2.3599747356745242 5.5789694572118993 0.0000000000000000 12.0000000000000000 162
16.0110756933087863  -2.3609055534125796 5.5833120664129847 0.0000000000000000 12.0000000000000000 163
16.1085707929229365  -2.3618312398081849 5.5876316205941521 0.0000000000000000 12.0000000000000000 164
16.2060611545004960  -2.3627517417060675 5.5919278435147834 0.0000000000000000 12.0000000000000000 165
16.3035468954065834  -2.3636670063211112 5.5962004615032246 0.0000000000000000 12.0000000000000000 166
16.4010281336088077  -2.3645769813400221 5.6004492038950469 0.0000000000000000 12.0000000000000000 167
16.4985049875877365  -2.3654816150179521 5.6046738034497281 0.0000000000000000 12.0000000000000000 168
16.5959775762486643  -2.3663808562701814 5.6088739967462109 0.0000000000000000 12.0000000000000000 169
16.6934460188347202  -2.3672746547590018 5.6130495245577450 0.0000000000000000 12.0000000000000000 170
16.7909104348413898  -2.3681629609758921 5.6172001322065004 0.0000000000000000 12.0000000000000000 171
16.8883709439325003  -2.3690457263191034 5.6213255698983247 0.0000000000000000 12.0000000000000000 172
16.9858276658577623  -2.3699229031667803 5.6254255930381332 0.0000000000000000 12.0000000000000000 173
17.0832807203719064  -2.3707944449457017 5.6294999625263120 0.0000000000000000 12.0000000000000000 174
17.1807302271554256  -2.3716603061957704 5.6335484450365811 0.0000000000000000 12.0000000000000000 175
17.2781763057370839  -2.3725204426303463 5.6375708132757314 0.0000000000000000 12.0000000000000000 176
17.3756190754181254  -2.3733748111925257 5.6415668462256559 0.0000000000000000 12.0000000000000000 177
17.4730586551982938  -2.3742233701074866 5.6455363293680882 0.0000000000000000 12.0000000000000000 178
17.5704951637036970  -2.3750660789309790 5.6494790548924829 0.0000000000000000 12.0000000000000000 179
17.6679287191165209  -2.3759028985940835 5.6533948218874297 0.0000000000000000 12.0000000000000000 180
17.7653594391067031  -2.3767337914443303 5.6572834365160425 0.0000000000000000 12.0000000000000000 181
17.8627874407654730  -2.3775587212832812 5.6611447121757310 0.0000000000000000 12.0000000000000000 182
17.9602128405409758  -2.3783776534006713 5.6649784696427634 0.0000000000000000 12.0000000000000000 183
18.0576357541757559  -2.3791905546052163 5.6687845372020496 0.0000000000000000 12.0000000000000000 184
18.1550562966463893  -2.3799973932521814 5.6725627507625571 0.0000000000000000 12.0000000000000000 185
18.2524745821050729  -2.3807981392678070 5.6763129539587638 0.0000000000000000 12.0000000000000000 186
18.3498907238233002  -2.3815927641706991 5.6800349982386038 0.0000000000000000 12.0000000000000000 187
18.4473048341376007  -2.3823812410902629 5.6837287429382446 0.0000000000000000 12.0000000000000000 188
18.5447170243973574  -2.3831635447823052 5.6873940553442095 0.0000000000000000 12.0000000000000000 189
18.6421274049146852  -2.3839396516418696 5.6910308107431700 0.0000000000000000 12.0000000000000000 190
18.7395360849164341  -2.3847095397134255 5.6946388924598725 0.0000000000000000 12.0000000000000000 191
18.8369431724982412  -2.3854731886984908 5.6982181918835959 0.0000000000000000 12.0000000000000000 192
18.9343487745806911  -2.3862305799607872 5.7017686084835431 0.0000000000000000 12.0000000000000000 193
19.0317529968675458  -2.3869816965290234 5.7052900498135823 0.0000000000000000 12.0000000000000000 194
19.1291559438060119  -2.3877265230973954 5.7087824315067426 0.0000000000000000 12.0000000000000000 195
