 # inv_tmp, energy, phys_var, phys_doublon, phys_num, step_i
0.1019229303169701  -0.1226697346730638 1.1340459985223430 0.0000000000000000 12.0000000000000000 1
0.2026734477305617  -0.2361817484729554 1.1585175859667216 0.0000000000000000 12.0000000000000000 2
0.3023089007217011  -0.3472489089015188 1.2012604620292566 0.0000000000000000 12.0000000000000000 3
0.4008950592030125  -0.4553469576406356 1.2608605167502172 0.0000000000000000 12.0000000000000000 4
0.4985036776220160  -0.5600325512189550 1.3356351269816980 0.0000000000000000 12.0000000000000000 5
0.5952102172952761  -0.6609442366930229 1.4237181623408506 0.0000000000000000 12.0000000000000000 6
0.6910918089296504  -0.7578005108799193 1.5231422975995543 0.0000000000000000 12.0000000000000000 7
0.7862254995631031  -0.8503956675165394 1.6319139796585185 0.0000000000000000 12.0000000000000000 8
0.8806867990063181  -0.9385940839688536 1.7480779097243526 0.0000000000000000 12.0000000000000000 9
0.9745485199941328  -1.0223235063970018 1.8697693448386565 0.0000000000000000 12.0000000000000000 10
1.0678798927717976  -1.1015677876438177 1.9952537569463344 0.0000000000000000 12.0000000000000000 11
1.1607459271301304  -1.1763594332296781 2.1229543436438911 0.0000000000000000 12.0000000000000000 12
1.2532069912746648  -1.2467722259950187 2.2514685500613689 0.0000000000000000 12.0000000000000000 13
1.3453185759574331  -1.3129141308206707 2.3795751604746651 0.0000000000000000 12.0000000000000000 14
1.4371312130025751  -1.3749206255993041 2.5062336957382159 0.0000000000000000 12.0000000000000000 15
1.5286905190642490  -1.4329485601755572 2.6305778602477714 0.0000000000000000 12.0000000000000000 16
1.6200373377722797  -1.4871706085203864 2.7519046704939214 0.0000000000000000 12.0000000000000000 17
1.7112079561088069  -1.5377703490007311 2.8696607109612504 0.0000000000000000 12.0000000000000000 18
1.8022343737582041  -1.5849379821551715 2.9834267385700919 0.0000000000000000 12.0000000000000000 19
1.8931446071573366  -1.6288666744070097 3.0929016217481315 0.0000000000000000 12.0000000000000000 20
1.9839630129340318  -1.6697494994562843 3.1978863740982297 0.0000000000000000 12.0000000000000000 21
2.0747106182611215  -1.7077769365627213 3.2982688379896263 0.0000000000000000 12.0000000000000000 22
2.1654054482905538  -1.7431348763410539 3.3940093970421481 0.0000000000000000 12.0000000000000000 23
2.2560628432065979  -1.7760030796732684 3.4851279508875082 0.0000000000000000 12.0000000000000000 24
2.3466957595117153  -1.8065540334055343 3.5716922702340228 0.0000000000000000 12.0000000000000000 25
2.4373150519181190  -1.8349521470673318 3.6538077626405068 0.0000000000000000 12.0000000000000000 26
2.5279297336664106  -1.8613532373308939 3.7316086159538311 0.0000000000000000 12.0000000000000000 27
2.6185472142487605  -1.8859042507530062 3.8052502430866841 0.0000000000000000 12.0000000000000000 28
2.7091735144065106  -1.9087431800047931 3.8749029247334486 0.0000000000000000 12.0000000000000000 29
2.7998134589350498  -1.9299991338786842 3.9407465320747885 0.0000000000000000 12.0000000000000000 30
2.8904708482983499  -1.9497925265359606 4.0029662062983391 0.0000000000000000 12.0000000000000000 31
2.9811486103668310  -1.9682353564805268 4.0617488731777991 0.0000000000000000 12.0000000000000000 32
3.0718489337776700  -1.9854315504490407 4.1172804768385323 0.0000000000000000 12.0000000000000000 33
3.1625733845049924  -2.0014773516926314 4.1697438255047192 0.0000000000000000 12.0000000000000000 34
3.2533230072431807  -2.0164617359396435 4.2193169521974969 0.0000000000000000 12.0000000000000000 35
3.3440984131700278  -2.0304668416584724 4.2661719041094699 0.0000000000000000 12.0000000000000000 36
3.4348998555841224  -2.0435684040971629 4.3104738850726303 0.0000000000000000 12.0000000000000000 37
3.5257272948156033  -2.0558361849919589 4.3523806857373657 0.0000000000000000 12.0000000000000000 38
3.6165804537010202  -2.0673343918504186 4.3920423455288500 0.0000000000000000 12.0000000000000000 39
3.7074588647989608  -2.0781220823708457 4.4296009990046556 0.0000000000000000 12.0000000000000000 40
3.7983619104086581  -2.0882535509044686 4.4651908668513478 0.0000000000000000 12.0000000000000000 41
3.8892888563425858  -2.0977786949442523 4.4989383584346765 0.0000000000000000 12.0000000000000000 42
3.9802388802986490  -2.1067433604756833 4.5309622586025444 0.0000000000000000 12.0000000000000000 43
4.0712110955794056  -2.1151896656874367 4.5613739763994268 0.0000000000000000 12.0000000000000000 44
4.1622045708155895  -2.1231563030464864 4.5902778375648410 0.0000000000000000 12.0000000000000000 45
4.2532183462693460  -2.1306788201213744 4.6177714062396316 0.0000000000000000 12.0000000000000000 46
4.3442514472189746  -2.1377898798135235 4.6439458242745708 0.0000000000000000 12.0000000000000000 47
4.4353028948611861  -2.1445195008501363 4.6688861590037050 0.0000000000000000 12.0000000000000000 48
4.5263717151085618  -2.1508952795207028 4.6926717523814636 0.0000000000000000 12.0000000000000000 49
4.6174569456084535  -2.1569425937165447 4.7153765660524547 0.0000000000000000 12.0000000000000000 50
4.7085576412642629  -2.1626847903708963 4.7370695182829579 0.0000000000000000 12.0000000000000000 51
4.7996728785005747  -2.1681433574051718 4.7578148097834356 0.0000000000000000 12.0000000000000000 52
4.8908017584790224  -2.1733380812729308 4.7776722363350670 0.0000000000000000 12.0000000000000000 53
4.9819434094418131  -2.1782871911627240 4.7966974868373722 0.0000000000000000 12.0000000000000000 54
5.0730969883338508  -2.1830074908792776 4.8149424259498428 0.0000000000000000 12.0000000000000000 55
5.1642616818318405  -2.1875144793731569 4.8324553609347776 0.0000000000000000 12.0000000000000000 56
5.2554367068893777  -2.1918224608350494 4.8492812926435906 0.0000000000000000 12.0000000000000000 57
5.3466213108903231  -2.1959446452143783 4.8654621508432054 0.0000000000000000 12.0000000000000000 58
5.4378147714883127  -2.1998932399648066 4.8810370142685198 0.0000000000000000 12.0000000000000000 59
5.5290163961979886  -2.2036795337625747 4.8960423159239497 0.0000000000000000 12.0000000000000000 60
5.6202255217929329  -2.2073139728884463 4.9105120342524584 0.0000000000000000 12.0000000000000000 61
5.7114415135562346  -2.2108062309109213 4.9244778708527956 0.0000000000000000 12.0000000000000000 62
5.8026637644219345  -2.2141652722578886 4.9379694154622760 0.0000000000000000 12.0000000000000000 63
5.8938916940390111  -2.2173994102160322 4.9510142989386976 0.0000000000000000 12.0000000000000000 64
5.9851247477839671  -2.2205163598525455 4.9636383349760624 0.0000000000000000 12.0000000000000000 65
6.0763623957433532  -2.2235232863117851 4.9758656512780242 0.0000000000000000 12.0000000000000000 66
6.1676041316835475  -2.2264268489006485 4.9877188108938348 0.0000000000000000 12.0000000000000000 67
6.2588494720217076  -2.2292332413404150 4.9992189243960103 0.0000000000000000 12.0000000000000000 68
6.3500979548089713  -2.2319482285295589 5.0103857535494143 0.0000000000000000 12.0000000000000000 69
6.4413491387345694  -2.2345771801314882 5.0212378070889647 0.0000000000000000 12.0000000000000000 70
6.5326026021575290  -2.2371251012730413 5.0317924291893066 0.0000000000000000 12.0000000000000000 71
6.6238579421709343  -2.2395966606138851 5.0420658811752288 0.0000000000000000 12.0000000000000000 72
6.7151147737023829  -2.2419962160233937 5.0520734169871364 0.0000000000000000 12.0000000000000000 73
6.8063727286530566  -2.2443278380801206 5.0618293528820217 0.0000000000000000 12.0000000000000000 74
6.8976314550769446  -2.2465953315893294 5.0713471318174843 0.0000000000000000 12.0000000000000000 75
6.9888906164009681  -2.2488022552962250 5.0806393829347316 0.0000000000000000 12.0000000000000000 76
7.0801498906861156  -2.2509519399562232 5.0897179765262930 0.0000000000000000 12.0000000000000000 77
7.1714089699292396  -2.2530475049088232 5.0985940748455718 0.0000000000000000 12.0000000000000000 78
7.2626675594047523  -2.2550918732881762 5.1072781790882873 0.0000000000000000 12.0000000000000000 79
7.3539253770451438  -2.2570877859912497 5.1157801728506014 0.0000000000000000 12.0000000000000000 80
7.4451821528590489  -2.2590378145133556 5.1241093623448695 0.0000000000000000 12.0000000000000000 81
7.5364376283853822  -2.2609443727507630 5.1322745136318808 0.0000000000000000 12.0000000000000000 82
7.6276915561819756  -2.2628097278609598 5.1402838871078576 0.0000000000000000 12.0000000000000000 83
7.7189436993470348  -2.2646360102628487 5.1481452694653411 0.0000000000000000 12.0000000000000000 84
7.8101938310717429  -2.2664252228516069 5.1558660033294181 0.0000000000000000 12.0000000000000000 85
7.9014417342222556  -2.2681792494961792 5.1634530147543956 0.0000000000000000 12.0000000000000000 86
7.9926872009494030  -2.2698998628811067 5.1709128387509020 0.0000000000000000 12.0000000000000000 87
8.0839300323243943  -2.2715887317488592 5.1782516429994825 0.0000000000000000 12.0000000000000000 88
8.1751700379988694  -2.2732474275937022 5.1854752498939884 0.0000000000000000 12.0000000000000000 89
8.2664070358877009  -2.2748774308535373 5.1925891570462017 0.0000000000000000 12.0000000000000000 90
8.3576408518730023  -2.2764801366419811 5.1995985563723757 0.0000000000000000 12.0000000000000000 91
8.4488713195278411  -2.2780568600591158 5.2065083518723867 0.0000000000000000 12.0000000000000000 92
8.5400982798582472  -2.2796088411159712 5.2133231762030920 0.0000000000000000 12.0000000000000000 93
8.6313215810621777  -2.2811372493045914 5.2200474061390896 0.0000000000000000 12.0000000000000000 94
8.7225410783041131  -2.2826431878427904 5.2266851770064440 0.0000000000000000 12.0000000000000000 95
8.8137566335041306  -2.2841276976200744 5.2332403961678917 0.0000000000000000 12.0000000000000000 96
8.9049681151402673  -2.2855917608688965 5.2397167556315578 0.0000000000000000 12.0000000000000000 97
8.9961753980631087  -2.2870363045832898 5.2461177438493962 0.0000000000000000 12.0000000000000000 98
9.0873783633216263  -2.2884622037050164 5.2524466567661090 0.0000000000000000 12.0000000000000000 99
9.1785768979992444  -2.2898702840955880 5.2587066081743306 0.0000000000000000 12.0000000000000000 100
9.2697708950593523  -2.2912613253109546 5.2649005394274084 0.0000000000000000 12.0000000000000000 101
9.3609602531993588  -2.2926360631942169 5.2710312285568790 0.0000000000000000 12.0000000000000000 102
9.4521448767125484  -2.2939951923003856 5.2771012988380033 0.0000000000000000 12.0000000000000000 103
9.5433246753570611  -2.2953393681660241 5.2831132268431968 0.0000000000000000 12.0000000000000000 104
9.6344995642312732  -2.2966692094355485 5.2890693500200676 0.0000000000000000 12.0000000000000000 105
9.7256694636550165  -2.2979852998549291 5.2949718738277625 0.0000000000000000 12.0000000000000000 106
9.8168342990560440  -2.2992881901426774 5.3008228784627516 0.0000000000000000 12.0000000000000000 107
9.9079940008612439  -2.3005783997471516 5.3066243252026624 0.0000000000000000 12.0000000000000000 108
9.9991485043920765  -2.3018564184984940 5.3123780623945445 0.0000000000000000 12.0000000000000000 109
10.0902977497638364  -2.3031227081628067 5.3180858311119197 0.0000000000000000 12.0000000000000000 110
10.1814416817883195  -2.3043777039055628 5.3237492705030034 0.0000000000000000 12.0000000000000000 111
10.2725802498794838  -2.3056218156706954 5.3293699228508835 0.0000000000000000 12.0000000000000000 112
10.3637134079618196  -2.3068554294812653 5.3349492383647119 0.0000000000000000 12.0000000000000000 113
10.4548411143810789  -2.3080789086671354 5.3404885797195778 0.0000000000000000 12.0000000000000000 114
10.5459633318170720  -2.3092925950246928 5.3459892263614304 0.0000000000000000 12.0000000000000000 115
10.6370800271983086  -2.3104968099131868 5.3514523785920698 0.0000000000000000 12.0000000000000000 116
10.7281911716182030  -2.3116918552919734 5.3568791614482372 0.0000000000000000 12.0000000000000000 117
10.8192967402526516  -2.3128780147025472 5.3622706283876571 0.0000000000000000 12.0000000000000000 118
10.9103967122787999  -2.3140555541990100 5.3676277647940465 0.0000000000000000 12.0000000000000000 119
11.0014910707948008  -2.3152247232302878 5.3729514913121426 0.0000000000000000 12.0000000000000000 120
11.0925798027404117  -2.3163857554771989 5.3782426670230290 0.0000000000000000 12.0000000000000000 121
11.1836628988183158  -2.3175388696472101 5.3835020924692927 0.0000000000000000 12.0000000000000000 122
11.2747403534160107  -2.3186842702295269 5.3887305125388458 0.0000000000000000 12.0000000000000000 123
11.3658121645281760  -2.3198221482129453 5.3939286192156040 0.0000000000000000 12.0000000000000000 124
11.4568783336794162  -2.3209526817687367 5.3990970542046783 0.0000000000000000 12.0000000000000000 125
11.5479388658472981  -2.3220760369006510 5.4042364114391068 0.0000000000000000 12.0000000000000000 126
11.6389937693855998  -2.3231923680639772 5.4093472394747684 0.0000000000000000 12.0000000000000000 127
11.7300430559477338  -2.3243018187554609 5.4144300437795536 0.0000000000000000 12.0000000000000000 128
11.8210867404102640  -2.3254045220757602 5.4194852889225329 0.0000000000000000 12.0000000000000000 129
11.9121248407964977  -2.3265006012659657 5.4245134006683857 0.0000000000000000 12.0000000000000000 130
12.0031573782000969  -2.3275901702196569 5.4295147679820932 0.0000000000000000 12.0000000000000000 131
12.0941843767087143  -2.3286733339718109 5.4344897449484471 0.0000000000000000 12.0000000000000000 132
12.1852058633275941  -2.3297501891658210 5.4394386526107041 0.0000000000000000 12.0000000000000000 133
12.2762218679031605  -2.3308208244997877 5.4443617807324127 0.0000000000000000 12.0000000000000000 134
12.3672324230465804  -2.3318853211531536 5.4492593894861194 0.0000000000000000 12.0000000000000000 135
12.4582375640572796  -2.3329437531947081 5.4541317110724918 0.0000000000000000 12.0000000000000000 136
12.5492373288464325  -2.3339961879728799 5.4589789512731279 0.0000000000000000 12.0000000000000000 137
12.6402317578604748  -2.3350426864892109 5.4638012909400846 0.0000000000000000 12.0000000000000000 138
12.7312208940045419  -2.3360833037558368 5.4685988874250393 0.0000000000000000 12.0000000000000000 139
12.8222047825659953  -2.3371180891377130 5.4733718759507344 0.0000000000000000 12.0000000000000000 140
12.9131834711379501  -2.3381470866803422 5.4781203709272415 0.0000000000000000 12.0000000000000000 141
13.0041570095428707  -2.3391703354236375 5.4828444672153989 0.0000000000000000 12.0000000000000000 142
13.0951254497562495  -2.3401878697025786 5.4875442413396485 0.0000000000000000 12.0000000000000000 143
13.1860888458304455  -2.3411997194352345 5.4922197526523622 0.0000000000000000 12.0000000000000000 144
13.2770472538186208  -2.3422059103987083 5.4968710444515878 0.0000000000000000 12.0000000000000000 145
13.3680007316989116  -2.3432064644935364 5.5014981450541178 0.0000000000000000 12.0000000000000000 146
13.4589493392988171  -2.3442013999970062 5.5061010688255472 0.0000000000000000 12.0000000000000000 147
13.5498931382198311  -2.3451907318058840 5.5106798171690308 0.0000000000000000 12.0000000000000000 148
13.6408321917624100  -2.3461744716689523 5.5152343794742364 0.0000000000000000 12.0000000000000000 149
13.7317665648512630  -2.3471526284097939 5.5197647340279836 0.0000000000000000 12.0000000000000000 150
13.8226963239610434  -2.3481252081401900 5.5242708488879524 0.0000000000000000 12.0000000000000000 151
13.9136215370424576  -2.3490922144645032 5.5287526827207572 0.0000000000000000 12.0000000000000000 152
14.0045422734488625  -2.3500536486753858 5.5332101856056344 0.0000000000000000 12.0000000000000000 153
14.0954586038633600  -2.3510095099411448 5.5376432998049516 0.0000000000000000 12.0000000000000000 154
14.1863706002264589  -2.3519597954850706 5.5420519605026026 0.0000000000000000 12.0000000000000000 155
14.2772783356643451  -2.3529045007570160 5.5464360965114325 0.0000000000000000 12.0000000000000000 156
14.3681818844177798  -2.3538436195975105 5.5507956309506232 0.0000000000000000 12.0000000000000000 157
14.4590813217716931  -2.3547771443946797 5.5551304818940999 0.0000000000000000 12.0000000000000000 158
14.5499767239855160  -2.3557050662342043 5.5594405629908055 0.0000000000000000 12.0000000000000000 159
14.6408681682242623  -2.3566273750425859 5.5637257840578069 0.0000000000000000 12.0000000000000000 160
14.7317557324904325  -2.3575440597239155 5.5679860516470150 0.0000000000000000 12.0000000000000000 161
14.8226394955567766  -2.3584551082903964 5.5722212695863806 0.0000000000000000 12.0000000000000000 162
14.9135195368999209  -2.3593605079868194 5.5764313394963416 0.0000000000000000 12.0000000000000000 163
15.0043959366349480  -2.3602602454091777 5.5806161612822756 0.0000000000000000 12.0000000000000000 164
15.0952687754509363  -2.3611543066176388 5.5847756336036660 0.0000000000000000 12.0000000000000000 165
15.1861381345474697  -2.3620426772440446 5.5889096543207240 0.0000000000000000 12.0000000000000000 166
15.2770040955722166  -2.3629253425941208 5.5930181209191101 0.0000000000000000 12.0000000000000000 167
15.3678667405595686  -2.3638022877445728 5.5971009309134345 0.0000000000000000 12.0000000000000000 168
15.4587261518703443  -2.3646734976352213 5.6011579822301565 0.0000000000000000 12.0000000000000000 169
15.5495824121326560  -2.3655389571563608 5.6051891735705137 0.0000000000000000 12.0000000000000000 170
15.6404356041839243  -2.3663986512314703 5.6091944047540725 0.0000000000000000 12.0000000000000000 171
15.7312858110140379  -2.3672525648954430 5.6131735770434865 0.0000000000000000 12.0000000000000000 172
15.8221331157097751  -2.3681006833684788 5.6171265934510313 0.0000000000000000 12.0000000000000000 173
15.9129776014004172  -2.3689429921257688 5.6210533590274521 0.0000000000000000 12.0000000000000000 174
16.0038193512046121  -2.3697794769631289 5.6249537811337067 0.0000000000000000 12.0000000000000000 175
16.0946584481785244  -2.3706101240586914 5.6288277696960662 0.0000000000000000 12.0000000000000000 176
16.1854949752652679  -2.3714349200308100 5.6326752374451559 0.0000000000000000 12.0000000000000000 177
16.2763290152456328  -2.3722538519922796 5.6364961001393725 0.0000000000000000 12.0000000000000000 178
16.3671606506901419  -2.3730669076010100 5.6402902767732366 0.0000000000000000 12.0000000000000000 179
16.4579899639124427  -2.3738740751072673 5.6440576897710990 0.0000000000000000 12.0000000000000000 180
16.5488170369240244  -2.3746753433975973 5.6477982651667116 0.0000000000000000 12.0000000000000000 181
16.6396419513902920  -2.3754707020355506 5.6515119327691279 0.0000000000000000 12.0000000000000000 182
16.7304647885880300  -2.3762601412993174 5.6551986263153520 0.0000000000000000 12.0000000000000000 183
16.8212856293641728  -2.3770436522163743 5.6588582836102068 0.0000000000000000 12.0000000000000000 184
16.9121045540960075  -2.3778212265952616 5.6624908466538662 0.0000000000000000 12.0000000000000000 185
17.0029216426526908  -2.3785928570545862 5.6660962617574393 0.0000000000000000 12.0000000000000000 186
17.0937369743581904  -2.3793585370493480 5.6696744796470728 0.0000000000000000 12.0000000000000000 187
17.1845506279555593  -2.3801182608947054 5.6732254555569561 0.0000000000000000 12.0000000000000000 188
17.2753626815725916  -2.3808720237872500 5.6767491493116236 0.0000000000000000 12.0000000000000000 189
17.3661732126888566  -2.3816198218239171 5.6802455253979991 0.0000000000000000 12.0000000000000000 190
17.4569822981040730  -2.3823616520185915 5.6837145530274951 0.0000000000000000 12.0000000000000000 191
17.5477900139078606  -2.3830975123165317 5.6871562061886340 0.0000000000000000 12.0000000000000000 192
17.6385964354508005  -2.3838274016066725 5.6905704636905075 0.0000000000000000 12.0000000000000000 193
17.7294016373168724  -2.3845513197319113 5.6939573091974456 0.0000000000000000 12.0000000000000000 194
17.8202056932971757  -2.3852692674974603 5.6973167312553006 0.0000000000000000 12.0000000000000000 195
