 # inv_tmp, energy, phys_var, phys_doublon, phys_num, step_i
0.0737315512007194  -0.1254295810948058 1.6911527197335654 0.0000000000000000 18.0000000000000000 1
0.1467967141261641  -0.2485663171057713 1.7220631654265186 0.0000000000000000 18.0000000000000000 2
0.2192185683433043  -0.3699442768177358 1.7769258335462355 0.0000000000000000 18.0000000000000000 3
0.2910231206398607  -0.4892248506260352 1.8545550435061844 0.0000000000000000 18.0000000000000000 4
0.3622386933286074  -0.6061066478296697 1.9535496371807952 0.0000000000000000 18.0000000000000000 5
0.4328953267342073  -0.7203269680198189 2.0723374910087116 0.0000000000000000 18.0000000000000000 6
0.5030242146209687  -0.8316621607352860 2.2092202797418556 0.0000000000000000 18.0000000000000000 7
0.5726571866529012  -0.9399270155285997 2.3624167056697125 0.0000000000000000 18.0000000000000000 8
0.6418262473085953  -1.0449733482860393 2.5301027674530698 0.0000000000000000 18.0000000000000000 9
0.7105631763693341  -1.1466879584039531 2.7104480292552298 0.0000000000000000 18.0000000000000000 10
0.7788991924061582  -1.2449901277186961 2.9016472272772340 0.0000000000000000 18.0000000000000000 11
0.8468646777397174  -1.3398288189985936 3.1019468902302538 0.0000000000000000 18.0000000000000000 12
0.9144889611651025  -1.4311797125191763 3.3096669359339117 0.0000000000000000 18.0000000000000000 13
0.9818001532767100  -1.5190421966745165 3.5232174304997526 0.0000000000000000 18.0000000000000000 14
1.0488250284013052  -1.6034364051439198 3.7411108591998099 0.0000000000000000 18.0000000000000000 15
1.1155889468320139  -1.6844003706488682 3.9619703641171546 0.0000000000000000 18.0000000000000000 16
1.1821158111278662  -1.7619873450134493 4.1845344611680284 0.0000000000000000 18.0000000000000000 17
1.2484280505866130  -1.8362633177653100 4.4076587676120997 0.0000000000000000 18.0000000000000000 18
1.3145466285126777  -1.9073047511403054 4.6303152603437230 0.0000000000000000 18.0000000000000000 19
1.3804910675066910  -1.9751965380291188 4.8515895538988927 0.0000000000000000 18.0000000000000000 20
1.4462794886371697  -2.0400301808723240 5.0706766427478387 0.0000000000000000 18.0000000000000000 21
1.5119286609757459  -2.1019021834032467 5.2868755011237152 0.0000000000000000 18.0000000000000000 22
1.5774540585571550  -2.1609126430437353 5.4995828799601139 0.0000000000000000 18.0000000000000000 23
1.6428699223481997  -2.2171640292691355 5.7082865877623465 0.0000000000000000 18.0000000000000000 24
1.7081893252691458  -2.2707601320022848 5.9125584926084613 0.0000000000000000 18.0000000000000000 25
1.7734242387057453  -2.3218051637491337 6.1120474372818547 0.0000000000000000 18.0000000000000000 26
1.8385855992834113  -2.3704029994831357 6.3064722194343403 0.0000000000000000 18.0000000000000000 27
1.9036833749525477  -2.4166565390086974 6.4956147538507487 0.0000000000000000 18.0000000000000000 28
1.9687266296621504  -2.4606671775213780 6.6793135041966138 0.0000000000000000 18.0000000000000000 29
2.0337235860843905  -2.5025343712123616 6.8574572467422064 0.0000000000000000 18.0000000000000000 30
2.0986816860024851  -2.5423552859490601 7.0299792080191423 0.0000000000000000 18.0000000000000000 31
2.1636076480937758  -2.5802245182422645 7.1968516016808817 0.0000000000000000 18.0000000000000000 32
2.2285075229348283  -2.6162338788434658 7.3580805765008881 0.0000000000000000 18.0000000000000000 33
2.2933867451300665  -2.6504722303797319 7.5137015769675228 0.0000000000000000 18.0000000000000000 34
2.3582501825238653  -2.6830253714150203 7.6637751098762763 0.0000000000000000 18.0000000000000000 35
2.4231021825012218  -2.7139759602208606 7.8083829042756658 0.0000000000000000 18.0000000000000000 36
2.4879466154168055  -2.7434034723461211 7.9476244477393578 0.0000000000000000 18.0000000000000000 37
2.5527869152184284  -2.7713841867984814 8.0816138789068255 0.0000000000000000 18.0000000000000000 38
2.6176261173504694  -2.7979911962945598 8.2104772142952491 0.0000000000000000 18.0000000000000000 39
2.6824668940369696  -2.8232944376078701 8.3343498863144276 0.0000000000000000 18.0000000000000000 40
2.7473115870539941  -2.8473607385504085 8.4533745690267779 0.0000000000000000 18.0000000000000000 41
2.8121622381073954  -2.8702538785715959 8.5676992683316122 0.0000000000000000 18.0000000000000000 42
2.8770206169359178  -2.8920346603534761 8.6774756537877948 0.0000000000000000 18.0000000000000000 43
2.9418882472613395  -2.9127609901296925 8.7828576101172189 0.0000000000000000 18.0000000000000000 44
3.0067664307073203  -2.9324879647629127 8.8839999874676501 0.0000000000000000 18.0000000000000000 45
3.0716562688073878  -2.9512679638858907 8.9810575306888083 0.0000000000000000 18.0000000000000000 46
3.1365586832201302  -2.9691507456495039 9.0741839691351664 0.0000000000000000 18.0000000000000000 47
3.2014744342665544  -2.9861835448307192 9.1635312498099832 0.0000000000000000 18.0000000000000000 48
3.2664041379008633  -3.0024111722376041 9.2492488979732386 0.0000000000000000 18.0000000000000000 49
3.3313482812216830  -3.0178761145105071 9.3314834906267379 0.0000000000000000 18.0000000000000000 50
3.3963072366263130  -3.0326186335605652 9.4103782295423706 0.0000000000000000 18.0000000000000000 51
3.4612812747058124  -3.0466768650113121 9.4860726017012027 0.0000000000000000 18.0000000000000000 52
3.5262705759739230  -3.0600869151181915 9.5587021161518653 0.0000000000000000 18.0000000000000000 53
3.5912752415178804  -3.0728829557360706 9.6283981073700780 0.0000000000000000 18.0000000000000000 54
3.6562953026542888  -3.0850973169878930 9.6952875962039577 0.0000000000000000 18.0000000000000000 55
3.7213307296683458  -3.0967605773598414 9.7594932004202875 0.0000000000000000 18.0000000000000000 56
3.7863814397099289  -3.1079016510110042 9.8211330877257019 0.0000000000000000 18.0000000000000000 57
3.8514473039154318  -3.1185478721396165 9.8803209649248736 0.0000000000000000 18.0000000000000000 58
3.9165281538196597  -3.1287250762945562 9.9371660975982046 0.0000000000000000 18.0000000000000000 59
3.9816237871178033  -3.1384576785605769 9.9917733553366581 0.0000000000000000 18.0000000000000000 60
4.0467339728332963  -3.1477687485798418 10.0442432781654709 0.0000000000000000 18.0000000000000000 61
4.1118584559433833  -3.1566800824010137 10.0946721603245688 0.0000000000000000 18.0000000000000000 62
4.1769969615104250  -3.1652122711714181 10.1431521480562132 0.0000000000000000 18.0000000000000000 63
4.2421491983633857  -3.1733847667079180 10.1897713484831147 0.0000000000000000 18.0000000000000000 64
4.3073148623705118  -3.1812159439988243 10.2346139470473787 0.0000000000000000 18.0000000000000000 65
4.3724936393410427  -3.1887231607026596 10.2777603313254886 0.0000000000000000 18.0000000000000000 66
4.4376852075907642  -3.1959228137205109 10.3192872193413532 0.0000000000000000 18.0000000000000000 67
4.5028892402033991  -3.2028303929271824 10.3592677907710566 0.0000000000000000 18.0000000000000000 68
4.5681054070171934  -3.2094605321528702 10.3977718196732631 0.0000000000000000 18.0000000000000000 69
4.6333333763635975  -3.2158270575118650 10.4348658075908354 0.0000000000000000 18.0000000000000000 70
4.6985728165826677  -3.2219430331779804 10.4706131160552616 0.0000000000000000 18.0000000000000000 71
4.7638233973376520  -3.2278208047084576 10.5050740976884018 0.0000000000000000 18.0000000000000000 72
4.8290847907493086  -3.2334720400189503 10.5383062252385358 0.0000000000000000 18.0000000000000000 73
4.8943566723686471  -3.2389077681121865 10.5703642180114734 0.0000000000000000 18.0000000000000000 74
4.9596387220051001  -3.2441384156621567 10.6013001652652701 0.0000000000000000 18.0000000000000000 75
5.0249306244256129  -3.2491738415542315 10.6311636462299859 0.0000000000000000 18.0000000000000000 76
5.0902320699386792  -3.2540233694797331 10.6600018464941471 0.0000000000000000 18.0000000000000000 77
5.1555427548760600  -3.2586958186811223 10.6878596705683417 0.0000000000000000 18.0000000000000000 78
5.2208623819836992  -3.2631995329413233 10.7147798504951499 0.0000000000000000 18.0000000000000000 79
5.2861906607322728  -3.2675424079077615 10.7408030504244767 0.0000000000000000 18.0000000000000000 80
5.3515273075567764  -3.2717319168386352 10.7659679671155750 0.0000000000000000 18.0000000000000000 81
5.4168720460336397  -3.2757751348556621 10.7903114263625071 0.0000000000000000 18.0000000000000000 82
5.4822246070030118  -3.2796787617842269 10.8138684753690821 0.0000000000000000 18.0000000000000000 83
5.5475847286430984  -3.2834491436585331 10.8366724711240270 0.0000000000000000 18.0000000000000000 84
5.6129521565027245  -3.2870922929658994 10.8587551648465244 0.0000000000000000 18.0000000000000000 85
5.6783266434976678  -3.2906139077010690 10.8801467825887901 0.0000000000000000 18.0000000000000000 86
5.7437079498757146  -3.2940193892980023 10.9008761020945677 0.0000000000000000 18.0000000000000000 87
5.8090958431548829  -3.2973138595033982 10.9209705260225665 0.0000000000000000 18.0000000000000000 88
5.8744900980387600  -3.3005021762529760 10.9404561516509720 0.0000000000000000 18.0000000000000000 89
5.9398904963125050  -3.3035889486084522 10.9593578371845695 0.0000000000000000 18.0000000000000000 90
6.0052968267226250  -3.3065785508101238 10.9776992647893685 0.0000000000000000 18.0000000000000000 91
6.0707088848433273  -3.3094751354970731 10.9955030004816514 0.0000000000000000 18.0000000000000000 92
6.1361264729319194  -3.3122826461441646 11.0127905509989805 0.0000000000000000 18.0000000000000000 93
6.2015493997754110  -3.3150048287623770 11.0295824177805066 0.0000000000000000 18.0000000000000000 94
6.2669774805302749  -3.3176452429063632 11.0458981481824665 0.0000000000000000 18.0000000000000000 95
6.3324105365570205  -3.3202072720306974 11.0617563840530195 0.0000000000000000 18.0000000000000000 96
6.3978483952510858  -3.3226941332339002 11.0771749077879633 0.0000000000000000 18.0000000000000000 97
6.4632908898713159  -3.3251088864271052 11.0921706859859057 0.0000000000000000 18.0000000000000000 98
6.5287378593671921  -3.3274544429620345 11.1067599108181270 0.0000000000000000 18.0000000000000000 99
6.5941891482057295  -3.3297335737510245 11.1209580392249006 0.0000000000000000 18.0000000000000000 100
6.6596446061989374  -3.3319489169097913 11.1347798300459466 0.0000000000000000 18.0000000000000000 101
6.7251040883325244  -3.3341029849519197 11.1482393791891639 0.0000000000000000 18.0000000000000000 102
6.7905674545964878  -3.3361981715622360 11.1613501529373682 0.0000000000000000 18.0000000000000000 103
6.8560345698180853  -3.3382367579746552 11.1741250194890274 0.0000000000000000 18.0000000000000000 104
6.9215053034976401  -3.3402209189785381 11.1865762788247736 0.0000000000000000 18.0000000000000000 105
6.9869795296475283  -3.3421527285760870 11.1987156909874166 0.0000000000000000 18.0000000000000000 106
7.0524571266346436  -3.3440341653120402 11.2105545028594236 0.0000000000000000 18.0000000000000000 107
7.1179379770265889  -3.3458671172954970 11.2221034735176186 0.0000000000000000 18.0000000000000000 108
7.1834219674417561  -3.3476533869326204 11.2333728982413774 0.0000000000000000 18.0000000000000000 109
7.2489089884034508  -3.3493946953877094 11.2443726312466268 0.0000000000000000 18.0000000000000000 110
7.3143989341981621  -3.3510926867891278 11.2551121072146127 0.0000000000000000 18.0000000000000000 111
7.3798917027380249  -3.3527489321954960 11.2656003616806402 0.0000000000000000 18.0000000000000000 112
7.4453871954275517  -3.3543649333366803 11.2758460503450131 0.0000000000000000 18.0000000000000000 113
7.5108853170345844  -3.3559421261431259 11.2858574673648526 0.0000000000000000 18.0000000000000000 114
7.5763859755655174  -3.3574818840763081 11.2956425626825911 0.0000000000000000 18.0000000000000000 115
7.6418890821447167  -3.3589855212722597 11.3052089584439397 0.0000000000000000 18.0000000000000000 116
7.7073945508981083  -3.3604542955093732 11.3145639645552833 0.0000000000000000 18.0000000000000000 117
7.7729022988408758  -3.3618894110110213 11.3237145934277770 0.0000000000000000 18.0000000000000000 118
7.8384122457691836  -3.3632920210928563 11.3326675739529001 0.0000000000000000 18.0000000000000000 119
7.9039243141558657  -3.3646632306640267 11.3414293647516580 0.0000000000000000 18.0000000000000000 120
7.9694384290499629  -3.3660040985910284 11.3500061667374652 0.0000000000000000 18.0000000000000000 121
8.0349545179800437  -3.3673156399322921 11.3584039350303811 0.0000000000000000 18.0000000000000000 122
8.1004725108611932  -3.3685988280511774 11.3666283902583718 0.0000000000000000 18.0000000000000000 123
8.1659923399055625  -3.3698545966145308 11.3746850292792807 0.0000000000000000 18.0000000000000000 124
8.2315139395363914  -3.3710838414835176 11.3825791353552326 0.0000000000000000 18.0000000000000000 125
8.2970372463053721  -3.3722874225030481 11.3903157878094916 0.0000000000000000 18.0000000000000000 126
8.3625621988132828  -3.3734661651957212 11.3978998711941166 0.0000000000000000 18.0000000000000000 127
8.4280887376337326  -3.3746208623658198 11.4053360839950404 0.0000000000000000 18.0000000000000000 128
8.4936168052399594  -3.3757522756185883 11.4126289468998934 0.0000000000000000 18.0000000000000000 129
8.5591463459345434  -3.3768611367996781 11.4197828106522543 0.0000000000000000 18.0000000000000000 130
8.6246773057819368  -3.3779481493593551 11.4268018635148199 0.0000000000000000 18.0000000000000000 131
8.6902096325437164  -3.3790139896457689 11.4336901383626461 0.0000000000000000 18.0000000000000000 132
8.7557432756164459  -3.3800593081313659 11.4404515194264356 0.0000000000000000 18.0000000000000000 133
8.8212781859720373  -3.3810847305762048 11.4470897487047019 0.0000000000000000 18.0000000000000000 134
8.8868143161005513  -3.3820908591317798 11.4536084320625857 0.0000000000000000 18.0000000000000000 135
8.9523516199552997  -3.3830782733886986 11.4600110450340988 0.0000000000000000 18.0000000000000000 136
9.0178900529001798  -3.3840475313713529 11.4663009383435934 0.0000000000000000 18.0000000000000000 137
9.0834295716591456  -3.3849991704825708 11.4724813431614194 0.0000000000000000 18.0000000000000000 138
9.1489701342677314  -3.3859337084010157 11.4785553761078027 0.0000000000000000 18.0000000000000000 139
9.2145117000265362  -3.3868516439339507 11.4845260440182706 0.0000000000000000 18.0000000000000000 140
9.2800542294566082  -3.3877534578278494 11.4903962484831617 0.0000000000000000 18.0000000000000000 141
9.3455976842566066  -3.3886396135391461 11.4961687901730532 0.0000000000000000 18.0000000000000000 142
9.4111420272617217  -3.3895105579673155 11.5018463729612463 0.0000000000000000 18.0000000000000000 143
9.4766872224042391  -3.3903667221523319 11.5074316078539294 0.0000000000000000 18.0000000000000000 144
9.5422332346756917  -3.3912085219384278 11.5129270167379136 0.0000000000000000 18.0000000000000000 145
9.6077800300905327  -3.3920363586059867 11.5183350359553778 0.0000000000000000 18.0000000000000000 146
9.6733275756512569  -3.3928506194732475 11.5236580197144782 0.0000000000000000 18.0000000000000000 147
9.7388758393149288  -3.3936516784694692 11.5288982433442690 0.0000000000000000 18.0000000000000000 148
9.8044247899610273  -3.3944398966810341 11.5340579064017685 0.0000000000000000 18.0000000000000000 149
9.8699743973605667  -3.3952156228719490 11.5391391356387487 0.0000000000000000 18.0000000000000000 150
9.9355246321464481  -3.3959791939800783 11.5441439878352892 0.0000000000000000 18.0000000000000000 151
10.0010754657849770  -3.3967309355903650 11.5490744525067690 0.0000000000000000 18.0000000000000000 152
10.0666268705484754  -3.3974711623862652 11.5539324544906421 0.0000000000000000 18.0000000000000000 153
10.1321788194889972  -3.3982001785804972 11.5587198564189784 0.0000000000000000 18.0000000000000000 154
10.1977312864130347  -3.3989182783261800 11.5634384610824181 0.0000000000000000 18.0000000000000000 155
10.2632842458572213  -3.3996257461093773 11.5680900136908829 0.0000000000000000 18.0000000000000000 156
10.3288376730649620  -3.4003228571239759 11.5726762040361404 0.0000000000000000 18.0000000000000000 157
10.3943915439639625  -3.4010098776297939 11.5771986685609392 0.0000000000000000 18.0000000000000000 158
10.4599458351446106  -3.4016870652947899 11.5816589923393600 0.0000000000000000 18.0000000000000000 159
10.5255005238391881  -3.4023546695221354 11.5860587109725550 0.0000000000000000 18.0000000000000000 160
10.5910555879018506  -3.4030129317629290 11.5903993124040259 0.0000000000000000 18.0000000000000000 161
10.6566110057893741  -3.4036620858152564 11.5946822386582618 0.0000000000000000 18.0000000000000000 162
10.7221667565426078  -3.4043023581102716 11.5989088875063793 0.0000000000000000 18.0000000000000000 163
10.7877228197686232  -3.4049339679859330 11.6030806140622254 0.0000000000000000 18.0000000000000000 164
10.8532791756235145  -3.4055571279490007 11.6071987323122450 0.0000000000000000 18.0000000000000000 165
10.9188358047958385  -3.4061720439258636 11.6112645165821426 0.0000000000000000 18.0000000000000000 166
10.9843926884906562  -3.4067789155027297 11.6152792029433858 0.0000000000000000 18.0000000000000000 167
11.0499498084141372  -3.4073779361557106 11.6192439905622997 0.0000000000000000 18.0000000000000000 168
11.1155071467587447  -3.4079692934712429 11.6231600429943249 0.0000000000000000 18.0000000000000000 169
11.1810646861889307  -3.4085531693573552 11.6270284894261078 0.0000000000000000 18.0000000000000000 170
11.2466224098273528  -3.4091297402461693 11.6308504258676813 0.0000000000000000 18.0000000000000000 171
11.3121803012415629  -3.4096991772880791 11.6346269162970568 0.0000000000000000 18.0000000000000000 172
11.3777383444311813  -3.4102616465379700 11.6383589937593648 0.0000000000000000 18.0000000000000000 173
11.4432965238155049  -3.4108173091338703 11.6420476614226089 0.0000000000000000 18.0000000000000000 174
11.5088548242215474  -3.4113663214683698 11.6456938935919325 0.0000000000000000 18.0000000000000000 175
11.5744132308725085  -3.4119088353531497 11.6492986366843034 0.0000000000000000 18.0000000000000000 176
11.6399717293765974  -3.4124449981769178 11.6528628101652867 0.0000000000000000 18.0000000000000000 177
11.7055303057162892  -3.4129749530570734 11.6563873074496662 0.0000000000000000 18.0000000000000000 178
11.7710889462378976  -3.4134988389853826 11.6598729967674579 0.0000000000000000 18.0000000000000000 179
11.8366476376415317  -3.4140167909678976 11.6633207219967723 0.0000000000000000 18.0000000000000000 180
11.9022063669713525  -3.4145289401594274 11.6667313034650491 0.0000000000000000 18.0000000000000000 181
11.9677651216061935  -3.4150354139927801 11.6701055387200192 0.0000000000000000 18.0000000000000000 182
12.0333238892504539  -3.4155363363029894 11.6734442032715808 0.0000000000000000 18.0000000000000000 183
12.0988826579253068  -3.4160318274467762 11.6767480513059940 0.0000000000000000 18.0000000000000000 184
12.1644414159601926  -3.4165220044174398 11.6800178163734500 0.0000000000000000 18.0000000000000000 185
12.2300001519845711  -3.4170069809553771 11.6832542120502048 0.0000000000000000 18.0000000000000000 186
12.2955588549199657  -3.4174868676544170 11.6864579325762747 0.0000000000000000 18.0000000000000000 187
12.3611175139722302  -3.4179617720641580 11.6896296534698187 0.0000000000000000 18.0000000000000000 188
12.4266761186240782  -3.4184317987884754 11.6927700321190819 0.0000000000000000 18.0000000000000000 189
12.4922346586278437  -3.4188970495803557 11.6958797083528907 0.0000000000000000 18.0000000000000000 190
12.5577931239984615  -3.4193576234332266 11.6989593049905221 0.0000000000000000 18.0000000000000000 191
12.6233515050066707  -3.4198136166689195 11.7020094283718912 0.0000000000000000 18.0000000000000000 192
12.6889097921724172  -3.4202651230224013 11.7050306688687211 0.0000000000000000 18.0000000000000000 193
12.7544679762584749  -3.4207122337234357 11.7080236013776080 0.0000000000000000 18.0000000000000000 194
