 # inv_tmp, energy, phys_var, phys_doublon, phys_num, step_i
0.0737332809213197  -0.1247932413883460 1.6999880254812776 0.0000000000000000 18.0000000000000000 1
0.1467966205812058  -0.2485836810340959 1.7304446409105216 0.0000000000000000 18.0000000000000000 2
0.2192136227451279  -0.3705617600964123 1.7850204934988119 0.0000000000000000 18.0000000000000000 3
0.2910108731078513  -0.4903817667153763 1.8624961296927816 0.0000000000000000 18.0000000000000000 4
0.3622173044199762  -0.6077367866594432 1.9614336634568241 0.0000000000000000 18.0000000000000000 5
0.4328635762789810  -0.7223602483614561 2.0802234809743312 0.0000000000000000 18.0000000000000000 6
0.5029814890874527  -0.8340263086020649 2.2171309895617632 0.0000000000000000 18.0000000000000000 7
0.5726034470055097  -0.9425492173924030 2.3703415292529524 0.0000000000000000 18.0000000000000000 8
0.6417619799978884  -1.0477818272425929 2.5380019594461554 0.0000000000000000 18.0000000000000000 9
0.7104893306542948  -1.1496134242886611 2.7182578528100483 0.0000000000000000 18.0000000000000000 10
0.7788171075959082  -1.2479670585443472 2.9092856353259524 0.0000000000000000 18.0000000000000000 11
0.8467760041184812  -1.3427965403728070 3.1093193760971740 0.0000000000000000 18.0000000000000000 12
0.9143955783176906  -1.4340832529340601 3.3166722353872511 0.0000000000000000 18.0000000000000000 13
0.9817040892754955  -1.5218329085948881 3.5297528161624503 0.0000000000000000 18.0000000000000000 14
1.0487283828848295  -1.6060723535262382 3.7470768331521409 0.0000000000000000 18.0000000000000000 15
1.1154938204497198  -1.6868465009505451 3.9672746198131552 0.0000000000000000 18.0000000000000000 16
1.1820242432008932  -1.7642154512235861 4.1890950468232120 0.0000000000000000 18.0000000000000000 17
1.2483419661953652  -1.8382518371300240 4.4114064366521095 0.0000000000000000 18.0000000000000000 18
1.3144677956147919  -1.9090384159826130 4.6331950382839908 0.0000000000000000 18.0000000000000000 19
1.3804210641497698  -1.9766659165236917 4.8535615842938604 0.0000000000000000 18.0000000000000000 20
1.4462196798824807  -2.0412311381441777 5.0717163977298565 0.0000000000000000 18.0000000000000000 21
1.5118801848032277  -2.1028352922864975 5.2869734554084991 0.0000000000000000 18.0000000000000000 22
1.5774178197795086  -2.1615825707039873 5.4987437523716123 0.0000000000000000 18.0000000000000000 23
1.6428465934156069  -2.2175789220856181 5.7065282529178480 0.0000000000000000 18.0000000000000000 24
1.7081793527839912  -2.2709310169977051 5.9099106590544048 0.0000000000000000 18.0000000000000000 25
1.7734278544733773  -2.3217453807510511 6.1085501786443608 0.0000000000000000 18.0000000000000000 26
1.8386028347843488  -2.3701276743292423 6.3021744334260177 0.0000000000000000 18.0000000000000000 27
1.9037140782180297  -2.4161821046250576 6.4905726114018112 0.0000000000000000 18.0000000000000000 28
1.9687704836545858  -2.4600109466979916 6.6735889384475255 0.0000000000000000 18.0000000000000000 29
2.0337801278153109  -2.5017141624114849 6.8511165197968724 0.0000000000000000 18.0000000000000000 30
2.0987503257536950  -2.5413891015048709 7.0230915826436426 0.0000000000000000 18.0000000000000000 31
2.1636876882354916  -2.5791302728133672 7.1894881357910645 0.0000000000000000 18.0000000000000000 32
2.2285981759529077  -2.6150291749115357 7.3503130504136696 0.0000000000000000 18.0000000000000000 33
2.2934871505799603  -2.6491741768880868 7.5056015569873171 0.0000000000000000 18.0000000000000000 34
2.3583594227201594  -2.6816504412466395 7.6554131467643565 0.0000000000000000 18.0000000000000000 35
2.4232192968282980  -2.7125398820648754 7.7998278613726129 0.0000000000000000 18.0000000000000000 36
2.4880706132086745  -2.7419211525382878 7.9389429508189373 0.0000000000000000 18.0000000000000000 37
2.5529167872052918  -2.7698696568947301 8.0728698780645587 0.0000000000000000 18.0000000000000000 38
2.6177608457073753  -2.7964575824048250 8.2017316471505293 0.0000000000000000 18.0000000000000000 39
2.6826054610976553  -2.8217539478451679 8.3256604313764733 0.0000000000000000 18.0000000000000000 40
2.7474529827721561  -2.8458246653097268 8.4447954781037211 0.0000000000000000 18.0000000000000000 41
2.8123054663597764  -2.8687326127232113 8.5592812672282292 0.0000000000000000 18.0000000000000000 42
2.8771647007680898  -2.8905377148000531 8.6692659011402249 0.0000000000000000 18.0000000000000000 43
2.9420322331791571  -2.9112970305248149 8.7748997049696023 0.0000000000000000 18.0000000000000000 44
3.0069093921157837  -2.9310648455131383 8.8763340170402216 0.0000000000000000 18.0000000000000000 45
3.0717973086949990  -2.9498927678547329 8.9737201506686617 0.0000000000000000 18.0000000000000000 46
3.1366969361814898  -2.9678298262478808 9.0672085097015263 0.0000000000000000 18.0000000000000000 47
3.2016090679495308  -2.9849225694138712 9.1569478414575283 0.0000000000000000 18.0000000000000000 48
3.2665343539576530  -3.0012151659343802 9.2430846120016028 0.0000000000000000 18.0000000000000000 49
3.3314733158358254  -3.0167495037886081 9.3257624899089127 0.0000000000000000 18.0000000000000000 50
3.3964263606804943  -3.0315652889832396 9.4051219258636607 0.0000000000000000 18.0000000000000000 51
3.4613937936483059  -3.0457001427693946 9.4812998165704663 0.0000000000000000 18.0000000000000000 52
3.5263758294348606  -3.0591896970288737 9.5544292425287267 0.0000000000000000 18.0000000000000000 53
3.5913726027203730  -3.0720676874888340 9.6246392702280659 0.0000000000000000 18.0000000000000000 54
3.6563841776597030  -3.0843660444910732 9.6920548102639064 0.0000000000000000 18.0000000000000000 55
3.7214105564898614  -3.0961149811004818 9.7567965237457699 0.0000000000000000 18.0000000000000000 56
3.7864516873238303  -3.1073430783880815 9.8189807701776157 0.0000000000000000 18.0000000000000000 57
3.8515074711953914  -3.1180773677681861 9.8787195907312082 0.0000000000000000 18.0000000000000000 58
3.9165777684155794  -3.1283434103074050 9.9361207215122604 0.0000000000000000 18.0000000000000000 59
3.9816624042974871  -3.1381653729561876 9.9912876320381905 0.0000000000000000 18.0000000000000000 60
4.0467611743023637  -3.1475661016818099 10.0443195847081714 0.0000000000000000 18.0000000000000000 61
4.1118738486563213  -3.1565671915058267 10.0953117115551674 0.0000000000000000 18.0000000000000000 62
4.1770001764835047  -3.1651890534694065 10.1443551050284739 0.0000000000000000 18.0000000000000000 63
4.2421398894982660  -3.1734509785671001 10.1915369199679553 0.0000000000000000 18.0000000000000000 64
4.3072927052957466  -3.1813711987037943 10.2369404843011580 0.0000000000000000 18.0000000000000000 65
4.3724583302772988  -3.1889669447412747 10.2806454163250134 0.0000000000000000 18.0000000000000000 66
4.4376364622443685  -3.1962545017102384 10.3227277467286296 0.0000000000000000 18.0000000000000000 67
4.5028267926918124  -3.2032492612709449 10.3632600437751918 0.0000000000000000 18.0000000000000000 68
4.5680290088291446  -3.2099657715114871 10.4023115402933790 0.0000000000000000 18.0000000000000000 69
4.6332427953558781  -3.2164177841767145 10.4399482613332175 0.0000000000000000 18.0000000000000000 70
4.6984678360149639  -3.2226182994238006 10.4762331515222229 0.0000000000000000 18.0000000000000000 71
4.7637038149462878  -3.2285796082021161 10.5112262013160525 0.0000000000000000 18.0000000000000000 72
4.8289504178603266  -3.2343133323558835 10.5449845714769594 0.0000000000000000 18.0000000000000000 73
4.8942073330502875  -3.2398304625480230 10.5775627152345884 0.0000000000000000 18.0000000000000000 74
4.9594742522594668  -3.2451413941028364 10.6090124976890579 0.0000000000000000 18.0000000000000000 75
5.0247508714190428  -3.2502559608639068 10.6393833121080803 0.0000000000000000 18.0000000000000000 76
5.0900368912701497  -3.2551834671617454 10.6687221928486640 0.0000000000000000 18.0000000000000000 77
5.1553320178827997  -3.2599327179835660 10.6970739247022077 0.0000000000000000 18.0000000000000000 78
5.2206359630830592  -3.2645120474350646 10.7244811485200024 0.0000000000000000 18.0000000000000000 79
5.2859484447987830  -3.2689293455813537 10.7509844630259472 0.0000000000000000 18.0000000000000000 80
5.3512691873332834  -3.2731920837512609 10.7766225227653418 0.0000000000000000 18.0000000000000000 81
5.4165979215753230  -3.2773073383862070 10.8014321321743161 0.0000000000000000 18.0000000000000000 82
5.4819343851530693  -3.2812818135116810 10.8254483357840776 0.0000000000000000 18.0000000000000000 83
5.5472783225388627  -3.2851218619061902 10.8487045045988459 0.0000000000000000 18.0000000000000000 84
5.6126294851109417  -3.2888335050393427 10.8712324187066915 0.0000000000000000 18.0000000000000000 85
5.6779876311777029  -3.2924224518475294 10.8930623461988443 0.0000000000000000 18.0000000000000000 86
5.7433525259694225  -3.2958941164125175 10.9142231184862730 0.0000000000000000 18.0000000000000000 87
5.8087239416019241  -3.2992536346051446 10.9347422021125844 0.0000000000000000 18.0000000000000000 88
5.8741016570161433  -3.3025058797532516 10.9546457671700992 0.0000000000000000 18.0000000000000000 89
5.9394854578971712  -3.3056554773900571 10.9739587524318161 0.0000000000000000 18.0000000000000000 90
6.0048751365759134  -3.3087068191362334 10.9927049273158204 0.0000000000000000 18.0000000000000000 91
6.0702704919162001  -3.3116640757662132 11.0109069508012283 0.0000000000000000 18.0000000000000000 92
6.1356713291898490  -3.3145312095065198 11.0285864274158651 0.0000000000000000 18.0000000000000000 93
6.2010774599418683  -3.3173119856113522 11.0457639604160534 0.0000000000000000 18.0000000000000000 94
6.2664887018478064  -3.3200099832581667 11.0624592022780668 0.0000000000000000 18.0000000000000000 95
6.3319048785649210  -3.3226286058035903 11.0786909026192220 0.0000000000000000 18.0000000000000000 96
6.3973258195787253  -3.3251710904377951 11.0944769536646639 0.0000000000000000 18.0000000000000000 97
6.4627513600462114  -3.3276405172732071 11.1098344333731021 0.0000000000000000 18.0000000000000000 98
6.5281813406369542  -3.3300398179014383 11.1247796463318949 0.0000000000000000 18.0000000000000000 99
6.5936156073730512  -3.3323717834503217 11.1393281625286633 0.0000000000000000 18.0000000000000000 100
6.6590540114688306  -3.3346390721710861 11.1534948541030516 0.0000000000000000 18.0000000000000000 101
6.7244964091710440  -3.3368442165839305 11.1672939301786744 0.0000000000000000 18.0000000000000000 102
6.7899426616002225  -3.3389896302085837 11.1807389698715482 0.0000000000000000 18.0000000000000000 103
6.8553926345937226  -3.3410776139048819 11.1938429535675965 0.0000000000000000 18.0000000000000000 104
6.9208461985509624  -3.3431103618468363 11.2066182925578524 0.0000000000000000 18.0000000000000000 105
6.9863032282812076  -3.3450899671523318 11.2190768571163986 0.0000000000000000 18.0000000000000000 106
7.0517636028542530  -3.3470184271891830 11.2312300031021444 0.0000000000000000 18.0000000000000000 107
7.1172272054542756  -3.3488976485770703 11.2430885971620107 0.0000000000000000 18.0000000000000000 108
7.1826939232370384  -3.3507294519036837 11.2546630406093779 0.0000000000000000 18.0000000000000000 109
7.2481636471906601  -3.3525155761722543 11.2659632920481538 0.0000000000000000 18.0000000000000000 110
7.3136362720000347  -3.3542576829966464 11.2769988888094446 0.0000000000000000 18.0000000000000000 111
7.3791116959150278  -3.3559573605591653 11.2877789672644333 0.0000000000000000 18.0000000000000000 112
7.4445898206224914  -3.3576161273453016 11.2983122820738977 0.0000000000000000 18.0000000000000000 113
7.5100705511221415  -3.3592354356687957 11.3086072244317712 0.0000000000000000 18.0000000000000000 114
7.5755537956063090  -3.3608166749995325 11.3186718393570587 0.0000000000000000 18.0000000000000000 115
7.6410394653435452  -3.3623611751060558 11.3285138420857905 0.0000000000000000 18.0000000000000000 116
7.7065274745660881  -3.3638702090237147 11.3381406336117401 0.0000000000000000 18.0000000000000000 117
7.7720177403611004  -3.3653449958588313 11.3475593154222096 0.0000000000000000 18.0000000000000000 118
7.8375101825656772  -3.3667867034385948 11.3567767034726828 0.0000000000000000 18.0000000000000000 119
7.9030047236655285  -3.3681964508158031 11.3657993414416900 0.0000000000000000 18.0000000000000000 120
7.9685012886972721  -3.3695753106370256 11.3746335133051204 0.0000000000000000 18.0000000000000000 121
8.0339998051542771  -3.3709243113822125 11.3832852552669408 0.0000000000000000 18.0000000000000000 122
8.0995002028959426  -3.3722444394832847 11.3917603670813747 0.0000000000000000 18.0000000000000000 123
8.1650024140603445  -3.3735366413287990 11.4000644227996037 0.0000000000000000 18.0000000000000000 124
8.2305063729801748  -3.3748018251613097 11.4082027809721822 0.0000000000000000 18.0000000000000000 125
8.2960120161018214  -3.3760408628736793 11.4161805943367636 0.0000000000000000 18.0000000000000000 126
8.3615192819075741  -3.3772545917101708 11.4240028190189360 0.0000000000000000 18.0000000000000000 127
8.4270281108407836  -3.3784438158778478 11.4316742232725410 0.0000000000000000 18.0000000000000000 128
8.4925384452339348  -3.3796093080734000 11.4391993957842839 0.0000000000000000 18.0000000000000000 129
8.5580502292394911  -3.3807518109302848 11.4465827535661262 0.0000000000000000 18.0000000000000000 130
8.6235634087634683  -3.3818720383906955 11.4538285494576169 0.0000000000000000 18.0000000000000000 131
8.6890779314015827  -3.3829706770066643 11.4609408792590344 0.0000000000000000 18.0000000000000000 132
8.7545937463779158  -3.3840483871742846 11.4679236885151248 0.0000000000000000 18.0000000000000000 133
8.8201108044860153  -3.3851058043048550 11.4747807789680429 0.0000000000000000 18.0000000000000000 134
8.8856290580323005  -3.3861435399364712 11.4815158146970937 0.0000000000000000 18.0000000000000000 135
8.9511484607817220  -3.3871621827894112 11.4881323279618854 0.0000000000000000 18.0000000000000000 136
9.0166689679055700  -3.3881622997684309 11.4946337247645509 0.0000000000000000 18.0000000000000000 137
9.0821905359313622  -3.3891444369149326 11.5010232901458593 0.0000000000000000 18.0000000000000000 138
9.1477131226947019  -3.3901091203117795 11.5073041932292206 0.0000000000000000 18.0000000000000000 139
9.2132366872930724  -3.3910568569433321 11.5134794920256507 0.0000000000000000 18.0000000000000000 140
9.2787611900414468  -3.3919881355131967 11.5195521380123473 0.0000000000000000 18.0000000000000000 141
9.3442865924296701  -3.3929034272219702 11.5255249804964883 0.0000000000000000 18.0000000000000000 142
9.4098128570815120  -3.3938031865071512 11.5314007707754200 0.0000000000000000 18.0000000000000000 143
9.4753399477153692  -3.3946878517472738 11.5371821661037579 0.0000000000000000 18.0000000000000000 144
9.5408678291064994  -3.3955578459321778 11.5428717334772681 0.0000000000000000 18.0000000000000000 145
9.6063964670507502  -3.3964135773012298 11.5484719532429452 0.0000000000000000 18.0000000000000000 146
9.6719258283297123  -3.3972554399512100 11.5539852225441280 0.0000000000000000 18.0000000000000000 147
9.7374558806772598  -3.3980838144154539 11.5594138586089521 0.0000000000000000 18.0000000000000000 148
9.8029865927473754  -3.3988990682157878 11.5647601018902257 0.0000000000000000 18.0000000000000000 149
9.8685179340832470  -3.3997015563886719 11.5700261190639839 0.0000000000000000 18.0000000000000000 150
9.9340498750875810  -3.4004916219868990 11.5752140058939759 0.0000000000000000 18.0000000000000000 151
9.9995823869940388  -3.4012695965581252 11.5803257899686720 0.0000000000000000 18.0000000000000000 152
10.0651154418398026  -3.4020358006014311 11.5853634333171680 0.0000000000000000 18.0000000000000000 153
10.1306490124391964  -3.4027905440030244 11.5903288349099114 0.0000000000000000 18.0000000000000000 154
10.1961830723583109  -3.4035341264521843 11.5952238330500030 0.0000000000000000 18.0000000000000000 155
10.2617175958906088  -3.4042668378384349 11.6000502076603595 0.0000000000000000 18.0000000000000000 156
10.3272525580334626  -3.4049889586308839 11.6048096824718172 0.0000000000000000 18.0000000000000000 157
10.3927879344655789  -3.4057007602406637 11.6095039271170357 0.0000000000000000 18.0000000000000000 158
10.4583237015252681  -3.4064025053672866 11.6141345591347012 0.0000000000000000 18.0000000000000000 159
10.5238598361895654  -3.4070944483297367 11.6187031458883219 0.0000000000000000 18.0000000000000000 160
10.5893963160540867  -3.4077768353830455 11.6232112064037789 0.0000000000000000 18.0000000000000000 161
10.6549331193136805  -3.4084499050210741 11.6276602131294133 0.0000000000000000 18.0000000000000000 162
10.7204702247437744  -3.4091138882661847 11.6320515936223750 0.0000000000000000 18.0000000000000000 163
10.7860076116824128  -3.4097690089464159 11.6363867321646630 0.0000000000000000 18.0000000000000000 164
10.8515452600129709  -3.4104154839608087 11.6406669713122088 0.0000000000000000 18.0000000000000000 165
10.9170831501474854  -3.4110535235334187 11.6448936133800771 0.0000000000000000 18.0000000000000000 166
10.9826212630105982  -3.4116833314565849 11.6490679218667683 0.0000000000000000 18.0000000000000000 167
11.0481595800240804  -3.4123051053239473 11.6531911228204468 0.0000000000000000 18.0000000000000000 168
11.1136980830919310  -3.4129190367537285 11.6572644061497748 0.0000000000000000 18.0000000000000000 169
11.1792367545859825  -3.4135253116027036 11.6612889268818183 0.0000000000000000 18.0000000000000000 170
11.2447755773320353  -3.4141241101713331 11.6652658063695434 0.0000000000000000 18.0000000000000000 171
11.3103145345964897  -3.4147156074004483 11.6691961334510879 0.0000000000000000 18.0000000000000000 172
11.3758536100734418  -3.4152999730598892 11.6730809655630345 0.0000000000000000 18.0000000000000000 173
11.4413927878722284  -3.4158773719294695 11.6769213298097192 0.0000000000000000 18.0000000000000000 174
11.5069320525054231  -3.4164479639726300 11.6807182239905991 0.0000000000000000 18.0000000000000000 175
11.5724713888772275  -3.4170119045030893 11.6844726175874296 0.0000000000000000 18.0000000000000000 176
11.6380107822722785  -3.4175693443448463 11.6881854527131352 0.0000000000000000 18.0000000000000000 177
11.7035502183448408  -3.4181204299858070 11.6918576450240010 0.0000000000000000 18.0000000000000000 178
11.7690896831083567  -3.4186653037253376 11.6954900845967984 0.0000000000000000 18.0000000000000000 179
11.8346291629253670  -3.4192041038160141 11.6990836367723787 0.0000000000000000 18.0000000000000000 180
11.9001686444977501  -3.4197369645998270 11.7026391429671808 0.0000000000000000 18.0000000000000000 181
11.9657081148573070  -3.4202640166390821 11.7061574214540141 0.0000000000000000 18.0000000000000000 182
12.0312475613566576  -3.4207853868422400 11.7096392681134969 0.0000000000000000 18.0000000000000000 183
12.0967869716604355  -3.4213011985849135 11.7130854571573284 0.0000000000000000 18.0000000000000000 184
12.1623263337367646  -3.4218115718262325 11.7164967418246242 0.0000000000000000 18.0000000000000000 185
12.2278656358490299  -3.4223166232207753 11.7198738550524464 0.0000000000000000 18.0000000000000000 186
12.2934048665479132  -3.4228164662262692 11.7232175101216356 0.0000000000000000 18.0000000000000000 187
12.3589440146636811  -3.4233112112072268 11.7265284012789319 0.0000000000000000 18.0000000000000000 188
12.4244830692987183  -3.4238009655347081 11.7298072043364101 0.0000000000000000 18.0000000000000000 189
12.4900220198203176  -3.4242858336823563 11.7330545772491455 0.0000000000000000 18.0000000000000000 190
12.5555608558536758  -3.4247659173188820 11.7362711606720183 0.0000000000000000 18.0000000000000000 191
12.6210995672751238  -3.4252413153971322 11.7394575784965092 0.0000000000000000 18.0000000000000000 192
12.6866381442055776  -3.4257121242398973 11.7426144383683173 0.0000000000000000 18.0000000000000000 193
12.7521765770041711  -3.4261784376225788 11.7457423321865129 0.0000000000000000 18.0000000000000000 194
