 # inv_tmp, energy, phys_var, phys_doublon, phys_num, step_i
0.0737278097189390  -0.1268061213846746 1.6963541112506801 0.0000000000000000 18.0000000000000000 1
0.1467873763497473  -0.2502997156191534 1.7280903791873632 0.0000000000000000 18.0000000000000036 2
0.2192016827275849  -0.3720526473173050 1.7838875726063019 0.0000000000000000 18.0000000000000071 3
0.2909966978824675  -0.4917208965414780 1.8625675046983030 0.0000000000000000 18.0000000000000000 4
0.3622007553906685  -0.6089981900066253 1.9627323198691675 0.0000000000000000 18.0000000000000000 5
0.4328439453802986  -0.7236175487143468 2.0828091556948984 0.0000000000000000 17.9999999999999929 6
0.5029575401605560  -0.8353516591696106 2.2210952236725436 0.0000000000000000 18.0000000000000000 7
0.5725734683845040  -0.9440122245682119 2.3758014642979739 0.0000000000000000 18.0000000000000000 8
0.6417238475808675  -1.0494484782750888 2.5450933010905232 0.0000000000000000 18.0000000000000036 9
0.7104405802284529  -1.1515450504934517 2.7271274165474342 0.0000000000000000 18.0000000000000000 10
0.7787550145819703  -1.2502193733024429 2.9200838614292928 0.0000000000000000 18.0000000000000000 11
0.8466976683348768  -1.3454187929897254 3.1221931584415570 0.0000000000000000 18.0000000000000036 12
0.9142980109490583  -1.4371175356834893 3.3317583545252512 0.0000000000000000 17.9999999999999929 13
0.9815842990304703  -1.5253136461699108 3.5471722048391214 0.0000000000000000 18.0000000000000036 14
1.0485834583670062  -1.6100259932766785 3.7669298362927623 0.0000000000000000 18.0000000000000000 15
1.1153210060268994  -1.6912914103477585 3.9896373448907543 0.0000000000000000 18.0000000000000000 16
1.1818210060973529  -1.7691620174157237 4.2140168380988161 0.0000000000000000 18.0000000000000000 17
1.2481060530910166  -1.8437027533386583 4.4389084511625665 0.0000000000000000 18.0000000000000036 18
1.3141972776511457  -1.9149891315534466 4.6632698548963472 0.0000000000000000 17.9999999999999964 19
1.3801143698581593  -1.9831052220048848 4.8861737409978954 0.0000000000000000 18.0000000000000000 20
1.4458756161183617  -2.0481418538299918 5.1068037270385869 0.0000000000000000 18.0000000000000000 21
1.5114979462583111  -2.1101950279994099 5.3244490729162424 0.0000000000000000 17.9999999999999964 22
1.5769969880314476  -2.1693645258139740 5.5384985481840685 0.0000000000000000 18.0000000000000000 23
1.6423871267555776  -2.2257526974293071 5.7484337383897470 0.0000000000000000 18.0000000000000036 24
1.7076815682383257  -2.2794634140022207 5.9538220303828169 0.0000000000000000 18.0000000000000036 25
1.7728924035160625  -2.3306011672630391 6.1543094726441314 0.0000000000000000 18.0000000000000071 26
1.8380306742368087  -2.3792703010367333 6.3496136676105319 0.0000000000000000 18.0000000000000000 27
1.9031064377674594  -2.4255743602516460 6.5395168188367876 0.0000000000000000 18.0000000000000000 28
1.9681288313088399  -2.4696155441353875 6.7238590265031233 0.0000000000000000 17.9999999999999964 29
2.0331061344666392  -2.5114942514992067 6.9025318999211978 0.0000000000000000 18.0000000000000000 30
2.0980458298593021  -2.5513087071876850 7.0754725349066776 0.0000000000000000 18.0000000000000000 31
2.1629546614515820  -2.5891546598803510 7.2426578867301394 0.0000000000000000 18.0000000000000000 32
2.2278386903897363  -2.6251251424554480 7.4040995553867486 0.0000000000000000 18.0000000000000000 33
2.2927033481852739  -2.6593102870563374 7.5598389887165229 0.0000000000000000 18.0000000000000000 34
2.3575534871520318  -2.6917971878386933 7.7099431000689265 0.0000000000000000 18.0000000000000000 35
2.4223934280486317  -2.7226698051273535 7.8545002903835588 0.0000000000000000 18.0000000000000000 36
2.4872270049169884  -2.7520089053832679 7.9936168594353996 0.0000000000000000 18.0000000000000000 37
2.5520576071390657  -2.7798920319821132 8.1274137872884413 0.0000000000000000 18.0000000000000000 38
2.6168882187596125  -2.8063935023451130 8.2560238644699631 0.0000000000000000 18.0000000000000000 39
2.6817214551431712  -2.8315844274471726 8.3795891478059268 0.0000000000000000 18.0000000000000000 40
2.7465595970498571  -2.8555327501642700 8.4982587180615496 0.0000000000000000 18.0000000000000000 41
2.8114046222270179  -2.8783032993167978 8.6121867153520615 0.0000000000000000 18.0000000000000000 42
2.8762582346232453  -2.8999578566230353 8.7215306285918786 0.0000000000000000 18.0000000000000000 43
2.9411218913379211  -2.9205552341010481 8.8264498159224871 0.0000000000000000 18.0000000000000000 44
3.0059968274237709  -2.9401513597513276 8.9271042340042115 0.0000000000000000 18.0000000000000036 45
3.0708840786622522  -2.9587993696190953 9.0236533551955773 0.0000000000000000 18.0000000000000000 46
3.1357845024321875  -2.9765497045767675 9.1162552529106780 0.0000000000000000 18.0000000000000000 47
3.2006987967912828  -2.9934502103854634 9.2050658367870533 0.0000000000000000 18.0000000000000000 48
3.2656275178881402  -3.0095462397915957 9.2902382206713270 0.0000000000000000 17.9999999999999964 49
3.3305710958194528  -3.0248807555918651 9.3719222078038857 0.0000000000000000 18.0000000000000000 50
3.3955298490433368  -3.0394944337590437 9.4502638789314766 0.0000000000000000 18.0000000000000000 51
3.4605039974554597  -3.0534257658630510 9.5254052703785348 0.0000000000000000 18.0000000000000000 52
3.5254936742298857  -3.0667111601483192 9.5974841303498728 0.0000000000000000 18.0000000000000000 53
3.5904989365215094  -3.0793850407405685 9.6666337429102978 0.0000000000000000 18.0000000000000000 54
3.6555197751217334  -3.0914799445550392 9.7329828101839659 0.0000000000000000 17.9999999999999964 55
3.7205561231537163  -3.1030266155650934 9.7966553843353292 0.0000000000000000 18.0000000000000000 56
3.7856078638881780  -3.1140540961659959 9.8577708418332808 0.0000000000000000 18.0000000000000071 57
3.8506748377555100  -3.1245898154346214 9.9164438933613965 0.0000000000000000 18.0000000000000000 58
3.9157568486247256  -3.1346596741427941 9.9727846235224789 0.0000000000000000 18.0000000000000000 59
3.9808536694148264  -3.1442881264308431 10.0268985551977288 0.0000000000000000 18.0000000000000000 60
4.0459650470992905  -3.1534982580896367 10.0788867340640635 0.0000000000000000 17.9999999999999964 61
4.1110907071598151  -3.1623118614345898 10.1288458293512385 0.0000000000000000 18.0000000000000036 62
4.1762303575410256  -3.1707495067846549 10.1768682474382040 0.0000000000000000 17.9999999999999929 63
4.2413836921537245  -3.1788306105838546 10.2230422553502560 0.0000000000000000 18.0000000000000036 64
4.3065503939703529  -3.1865735002229174 10.2674521116290158 0.0000000000000000 18.0000000000000000 65
4.3717301377526407  -3.1939954756349040 10.3101782024115529 0.0000000000000000 18.0000000000000036 66
4.4369225924480507  -3.2011128677514633 10.3512971808760312 0.0000000000000000 18.0000000000000000 67
4.5021274232883464  -3.2079410939163973 10.3908821084944716 0.0000000000000000 18.0000000000000000 68
4.5673442936207573  -3.2144947103605874 10.4290025967812880 0.0000000000000000 17.9999999999999929 69
4.6325728664993671  -3.2207874618477104 10.4657249484436345 0.0000000000000000 18.0000000000000000 70
4.6978128060619095  -3.2268323286035727 10.5011122970287420 0.0000000000000000 18.0000000000000000 71
4.7630637787147521  -3.2326415706439349 10.5352247443282732 0.0000000000000000 18.0000000000000000 72
4.8283254541467571  -3.2382267696162472 10.5681194949419783 0.0000000000000000 18.0000000000000000 73
4.8935975061907060  -3.2435988682703809 10.5998509875262137 0.0000000000000000 18.0000000000000036 74
4.9588796135491888  -3.2487682076721032 10.6304710223585062 0.0000000000000000 18.0000000000000000 75
5.0241714604002015  -3.2537445622710504 10.6600288849400187 0.0000000000000000 18.0000000000000000 76
5.0894727368962238  -3.2585371729323240 10.6885714654349329 0.0000000000000000 18.0000000000000000 77
5.1547831395691084  -3.2631547780378862 10.7161433738114091 0.0000000000000000 17.9999999999999964 78
5.2201023716519561  -3.2676056427604623 10.7427870506039405 0.0000000000000000 18.0000000000000000 79
5.2854301433279414  -3.2718975866090836 10.7685428732633923 0.0000000000000000 18.0000000000000000 80
5.3507661719150743  -3.2760380093415948 10.7934492580996224 0.0000000000000000 18.0000000000000000 81
5.4161101819949140  -3.2800339153355145 10.8175427578534169 0.0000000000000000 18.0000000000000000 82
5.4814619054924396  -3.2838919365046628 10.8408581549605678 0.0000000000000000 18.0000000000000000 83
5.5468210817134924  -3.2876183538450103 10.8634285505920136 0.0000000000000000 18.0000000000000000 84
5.6121874573455166  -3.2912191176891907 10.8852854495705849 0.0000000000000000 17.9999999999999964 85
5.6775607864267323  -3.2946998667452552 10.9064588412780932 0.0000000000000000 17.9999999999999964 86
5.7429408302882559  -3.2980659459913682 10.9269772766762507 0.0000000000000000 18.0000000000000000 87
5.8083273574732379  -3.3013224234944376 10.9468679415721759 0.0000000000000000 18.0000000000000000 88
5.8737201436365760  -3.3044741062170315 10.9661567262642379 0.0000000000000000 17.9999999999999929 89
5.9391189714284049  -3.3075255548734317 10.9848682917069027 0.0000000000000000 18.0000000000000000 90
6.0045236303641465  -3.3104810978922790 11.0030261323347816 0.0000000000000000 18.0000000000000071 91
6.0699339166836088  -3.3133448445400679 11.0206526356861652 0.0000000000000000 17.9999999999999964 92
6.1353496332013098  -3.3161206972566131 11.0377691389653751 0.0000000000000000 18.0000000000000000 93
6.2007705891499381  -3.3188123632506272 11.0543959826812408 0.0000000000000000 18.0000000000000000 94
6.2661966000186293  -3.3214233654008098 11.0705525614966955 0.0000000000000000 18.0000000000000036 95
6.3316274873875313  -3.3239570525050524 11.0862573724209987 0.0000000000000000 17.9999999999999964 96
6.3970630787599063  -3.3264166089179183 11.1015280604727540 0.0000000000000000 18.0000000000000036 97
6.4625032073929054  -3.3288050636140536 11.1163814619376993 0.0000000000000000 18.0000000000000000 98
6.5279477121279639  -3.3311252987129798 11.1308336453412728 0.0000000000000000 18.0000000000000000 99
6.5933964372216245  -3.3333800574984864 11.1448999502514035 0.0000000000000000 18.0000000000000000 100
6.6588492321775066  -3.3355719519638471 11.1585950240225920 0.0000000000000000 18.0000000000000000 101
6.7243059515800194  -3.3377034699121415 11.1719328565878122 0.0000000000000000 18.0000000000000036 102
6.7897664549303016  -3.3397769816391465 11.1849268134001889 0.0000000000000000 18.0000000000000000 103
6.8552306064848541  -3.3417947462245654 11.1975896666219796 0.0000000000000000 18.0000000000000000 104
6.9206982750971600  -3.3437589174557356 11.2099336246537788 0.0000000000000000 18.0000000000000000 105
6.9861693340626196  -3.3456715494064757 11.2219703600927811 0.0000000000000000 18.0000000000000036 106
7.0516436609670006  -3.3475346016922698 11.2337110362043102 0.0000000000000000 18.0000000000000000 107
7.1171211375386125  -3.3493499444217041 11.2451663319870683 0.0000000000000000 17.9999999999999964 108
7.1826016495042992  -3.3511193628627671 11.2563464659082175 0.0000000000000000 18.0000000000000000 109
7.2480850864493975  -3.3528445618414850 11.2672612183807175 0.0000000000000000 18.0000000000000000 110
7.3135713416816790  -3.3545271698892640 11.2779199530516117 0.0000000000000000 18.0000000000000000 111
7.3790603120993410  -3.3561687431542424 11.2883316369662374 0.0000000000000000 17.9999999999999964 112
7.4445518980630609  -3.3577707690910383 11.2985048596700395 0.0000000000000000 18.0000000000000000 113
7.5100460032720866  -3.3593346699423163 11.3084478513062958 0.0000000000000000 18.0000000000000000 114
7.5755425346443470  -3.3608618060248210 11.3181684997649814 0.0000000000000000 18.0000000000000036 115
7.6410414022005408  -3.3623534788316176 11.3276743669348914 0.0000000000000000 18.0000000000000000 116
7.7065425189521521  -3.3638109339616866 11.3369727041084793 0.0000000000000000 18.0000000000000000 117
7.7720458007933182  -3.3652353638871606 11.3460704665859371 0.0000000000000000 18.0000000000000036 118
7.8375511663964819  -3.3666279105679733 11.3549743275226334 0.0000000000000000 18.0000000000000000 119
7.9030585371117441  -3.3679896679229886 11.3636906910615050 0.0000000000000000 17.9999999999999964 120
7.9685678368698296  -3.3693216841661648 11.3722257047896687 0.0000000000000000 17.9999999999999964 121
8.0340789920885882  -3.3706249640157280 11.3805852715563418 0.0000000000000000 18.0000000000000000 122
8.0995919315829017  -3.3719004707838760 11.3887750606871343 0.0000000000000000 18.0000000000000036 123
8.1651065864779362  -3.3731491283540191 11.3968005186276322 0.0000000000000000 18.0000000000000036 124
8.2306228901256269  -3.3743718230521611 11.4046668790476069 0.0000000000000000 18.0000000000000000 125
8.2961407780242826  -3.3755694054185956 11.4123791724350987 0.0000000000000000 18.0000000000000000 126
8.3616601877412258  -3.3767426918857102 11.4199422352082252 0.0000000000000000 18.0000000000000000 127
8.4271810588383786  -3.3778924663673480 11.4273607183708954 0.0000000000000000 17.9999999999999964 128
8.4927033328006516  -3.3790194817648205 11.4346390957370652 0.0000000000000000 18.0000000000000000 129
8.5582269529670913  -3.3801244613943546 11.4417816717468863 0.0000000000000000 18.0000000000000000 130
8.6237518644646567  -3.3812081003404852 11.4487925888967244 0.0000000000000000 18.0000000000000000 131
8.6892780141445360  -3.3822710667395892 11.4556758348037455 0.0000000000000000 17.9999999999999929 132
8.7548053505209147  -3.3833140029975515 11.4624352489246988 0.0000000000000000 18.0000000000000036 133
8.8203338237121027  -3.3843375269452358 11.4690745289472353 0.0000000000000000 17.9999999999999964 134
8.8858633853839297  -3.3853422329353307 11.4755972368713710 0.0000000000000000 17.9999999999999964 135
8.9513939886953260  -3.3863286928837617 11.4820068047972939 0.0000000000000000 18.0000000000000000 136
9.0169255882460071  -3.3872974572588301 11.4883065404352092 0.0000000000000000 18.0000000000000036 137
9.0824581400261692  -3.3882490560209462 11.4944996323517685 0.0000000000000000 18.0000000000000000 138
9.1479916013681226  -3.3891839995156836 11.5005891549669279 0.0000000000000000 18.0000000000000036 139
9.2135259308998023  -3.3901027793227163 11.5065780733142216 0.0000000000000000 18.0000000000000000 140
9.2790610885000557  -3.3910058690630756 11.5124692475768704 0.0000000000000000 18.0000000000000000 141
9.3445970352556529  -3.3918937251669550 11.5182654374112250 0.0000000000000000 17.9999999999999964 142
9.4101337334199453  -3.3927667876042391 11.5239693060686399 0.0000000000000000 18.0000000000000000 143
9.4756711463731147  -3.3936254805797290 11.5295834243260131 0.0000000000000000 18.0000000000000000 144
9.5412092385839262  -3.3944702131949889 11.5351102742349525 0.0000000000000000 18.0000000000000000 145
9.6067479755729632  -3.3953013800785783 11.5405522526986832 0.0000000000000000 17.9999999999999964 146
9.6722873238772369  -3.3961193619863446 11.5459116748855024 0.0000000000000000 18.0000000000000036 147
9.7378272510161565  -3.3969245263733674 11.5511907774870259 0.0000000000000000 18.0000000000000000 148
9.8033677254587808  -3.3977172279390500 11.5563917218291152 0.0000000000000000 18.0000000000000000 149
9.8689087165922942  -3.3984978091467406 11.5615165968427256 0.0000000000000000 18.0000000000000000 150
9.9344501946916974  -3.3992666007192320 11.5665674219018264 0.0000000000000000 18.0000000000000000 151
9.9999921308906075  -3.4000239221113784 11.5715461495348819 0.0000000000000000 17.9999999999999964 152
10.0655344971531520  -3.4007700819610096 11.5764546680161970 0.0000000000000000 18.0000000000000000 153
10.1310772662469279  -3.4015053785192424 11.5812948038430399 0.0000000000000000 18.0000000000000000 154
10.1966204117169426  -3.4022301000612729 11.5860683241041258 0.0000000000000000 17.9999999999999964 155
10.2621639078605309  -3.4029445252786035 11.5907769387448063 0.0000000000000000 17.9999999999999964 156
10.3277077297031905  -3.4036489236536598 11.5954223027338816 0.0000000000000000 18.0000000000000000 157
10.3932518529753093  -3.4043435558176798 11.6000060181369093 0.0000000000000000 18.0000000000000000 158
10.4587962540897319  -3.4050286738927138 11.6045296361004517 0.0000000000000000 18.0000000000000000 159
10.5243409101201575  -3.4057045218185116 11.6089946587514845 0.0000000000000000 17.9999999999999964 160
10.5898857987803048  -3.4063713356650682 11.6134025410161357 0.0000000000000000 18.0000000000000000 161
10.6554308984038428  -3.4070293439314940 11.6177546923613981 0.0000000000000000 18.0000000000000000 162
10.7209761879250394  -3.4076787678319338 11.6220524784636652 0.0000000000000000 18.0000000000000036 163
10.7865216468600913  -3.4083198215691084 11.6262972228073309 0.0000000000000000 17.9999999999999964 164
10.8520672552891302  -3.4089527125961245 11.6304902082168855 0.0000000000000000 18.0000000000000071 165
10.9176129938388708  -3.4095776418670733 11.6346326783254668 0.0000000000000000 18.0000000000000000 166
10.9831588436658603  -3.4101948040770105 11.6387258389829196 0.0000000000000000 18.0000000000000000 167
11.0487047864403198  -3.4108043878917651 11.6427708596060899 0.0000000000000000 17.9999999999999964 168
11.1142508043305579  -3.4114065761681087 11.6467688744740379 0.0000000000000000 18.0000000000000036 169
11.1797968799879239  -3.4120015461646975 11.6507209839706292 0.0000000000000000 18.0000000000000000 170
11.2453429965322780  -3.4125894697442676 11.6546282557769807 0.0000000000000000 18.0000000000000000 171
11.3108891375379681  -3.4131705135674419 11.6584917260159813 0.0000000000000000 18.0000000000000000 172
11.3764352870202874  -3.4137448392785803 11.6623124003509968 0.0000000000000000 18.0000000000000000 173
11.4419814294223965  -3.4143126036840097 11.6660912550409250 0.0000000000000000 18.0000000000000000 174
11.5075275496026883  -3.4148739589230126 11.6698292379534525 0.0000000000000000 18.0000000000000000 175
11.5730736328225863  -3.4154290526318754 11.6735272695383987 0.0000000000000000 18.0000000000000000 176
11.6386196647347386  -3.4159780281013425 11.6771862437629252 0.0000000000000000 18.0000000000000036 177
11.7041656313716356  -3.4165210244277482 11.6808070290102499 0.0000000000000000 17.9999999999999929 178
11.7697115191345816  -3.4170581766581387 11.6843904689435369 0.0000000000000000 17.9999999999999964 179
11.8352573147830515  -3.4175896159296162 11.6879373833363349 0.0000000000000000 18.0000000000000036 180
11.9008030054243896  -3.4181154696032072 11.6914485688711878 0.0000000000000000 18.0000000000000000 181
11.9663485785038493  -3.4186358613924672 11.6949247999076871 0.0000000000000000 18.0000000000000000 182
12.0318940217949635  -3.4191509114870589 11.6983668292212641 0.0000000000000000 18.0000000000000000 183
12.0974393233902280  -3.4196607366715370 11.7017753887140401 0.0000000000000000 18.0000000000000000 184
12.1629844716920807  -3.4201654504395349 11.7051511900988707 0.0000000000000000 18.0000000000000036 185
12.2285294554041890  -3.4206651631035649 11.7084949255577495 0.0000000000000000 18.0000000000000000 186
12.2940742635229956  -3.4211599819006144 11.7118072683756260 0.0000000000000000 18.0000000000000000 187
12.3596188853295548  -3.4216500110937202 11.7150888735506786 0.0000000000000000 18.0000000000000000 188
12.4251633103816186  -3.4221353520696969 11.7183403783820310 0.0000000000000000 18.0000000000000000 189
12.4907075285059772  -3.4226161034331781 11.7215624030358523 0.0000000000000000 18.0000000000000000 190
12.5562515297910391  -3.4230923610971375 11.7247555510907144 0.0000000000000000 18.0000000000000036 191
12.6217953045796438  -3.4235642183700179 11.7279204100630672 0.0000000000000000 18.0000000000000000 192
12.6873388434621130  -3.4240317660396413 11.7310575519136879 0.0000000000000000 18.0000000000000036 193
12.7528821372694932  -3.4244950924540012 11.7341675335357891 0.0000000000000000 18.0000000000000000 194
