 # inv_tmp, energy, phys_var, phys_doublon, phys_num, step_i
0.0681062253936581  -0.1158911272777183 1.6902423612441735 0.0000000000000000 18.0000000000000000 1
0.1356862222116124  -0.2297801486558743 1.7166153550174008 0.0000000000000000 18.0000000000000000 2
0.2027556235812678  -0.3422741575406992 1.7635622881184787 0.0000000000000000 18.0000000000000000 3
0.2693321868231011  -0.4530967385062100 1.8302092396133567 0.0000000000000000 18.0000000000000000 4
0.3354354249063887  -0.5619973547538654 1.9155146294635510 0.0000000000000000 18.0000000000000000 5
0.4010862382039845  -0.6687527693160005 2.0182983011026105 0.0000000000000000 18.0000000000000000 6
0.4663065575245325  -0.7731677511064325 2.1372714078108315 0.0000000000000000 18.0000000000000000 7
0.5311190073583913  -0.8750751306729874 2.2710659959443418 0.0000000000000000 18.0000000000000000 8
0.5955465960824908  -0.9743352886308277 2.4182633437203602 0.0000000000000000 18.0000000000000000 9
0.6596124377067650  -1.0708351703203149 2.5774203065524572 0.0000000000000000 18.0000000000000000 10
0.7233395077494830  -1.1644869239180973 2.7470931205180076 0.0000000000000000 18.0000000000000000 11
0.7867504340957227  -1.2552262571487272 2.9258583091786585 0.0000000000000000 18.0000000000000000 12
0.8498673222748980  -1.3430106012359886 3.1123305143203375 0.0000000000000000 18.0000000000000000 13
0.9127116135052231  -1.4278171611812953 3.3051772209430483 0.0000000000000000 18.0000000000000000 14
0.9753039730821612  -1.5096409201470080 3.5031304674369941 0.0000000000000000 18.0000000000000000 15
1.0376642062012873  -1.5884926537521920 3.7049957228185071 0.0000000000000000 18.0000000000000000 16
1.0998111980592378  -1.6643969983188842 3.9096581759323201 0.0000000000000000 18.0000000000000000 17
1.1617628750207913  -1.7373906061559476 4.1160867199103439 0.0000000000000000 18.0000000000000000 18
1.2235361837277698  -1.8075204112269987 4.3233359329581935 0.0000000000000000 18.0000000000000000 19
1.2851470852129929  -1.8748420202195255 4.5305463580016934 0.0000000000000000 18.0000000000000000 20
1.3466105613330235  -1.9394182371655944 4.7369433729824379 0.0000000000000000 18.0000000000000000 21
1.4079406311171576  -2.0013177243044384 4.9418349243357689 0.0000000000000000 18.0000000000000000 22
1.4691503749243480  -2.0606137976983501 5.1446083715485127 0.0000000000000000 18.0000000000000000 23
1.5302519645882442  -2.1173833530517290 5.3447266632055728 0.0000000000000000 18.0000000000000000 24
1.5912566980023324  -2.1717059150607958 5.5417240365394758 0.0000000000000000 18.0000000000000000 25
1.6521750368457808  -2.2236628022626657 5.7352014046163289 0.0000000000000000 18.0000000000000000 26
1.7130166463727139  -2.2733363985949335 5.9248215689017254 0.0000000000000000 18.0000000000000000 27
1.7737904363824399  -2.3208095225777070 6.1103043706663032 0.0000000000000000 18.0000000000000000 28
1.8345046026563583  -2.3661648850682329 6.2914218728484190 0.0000000000000000 18.0000000000000000 29
1.8951666682906854  -2.4094846268143919 6.4679936447173940 0.0000000000000000 18.0000000000000000 30
1.9557835244750661  -2.4508499274687643 6.6398822049546862 0.0000000000000000 18.0000000000000000 31
2.0163614703681922  -2.4903406782581734 6.8069886644713549 0.0000000000000000 18.0000000000000000 32
2.0769062518053114  -2.5280352110889686 6.9692485982275834 0.0000000000000000 18.0000000000000000 33
2.1374230986414302  -2.5640100774720533 7.1266281652991257 0.0000000000000000 18.0000000000000000 34
2.1979167605903904  -2.5983398712501984 7.2791204882191085 0.0000000000000000 18.0000000000000000 35
2.2583915414657874  -2.6310970896875983 7.4267422959861200 0.0000000000000000 18.0000000000000000 36
2.3188513317667003  -2.6623520280277901 7.5695308298552533 0.0000000000000000 18.0000000000000000 37
2.3792996395808905  -2.6921727031351375 7.7075410069182473 0.0000000000000000 18.0000000000000000 38
2.4397396198017907  -2.7206248023044690 7.8408428333511244 0.0000000000000000 18.0000000000000000 39
2.5001741016742942  -2.7477716537525607 7.9695190569019347 0.0000000000000000 18.0000000000000000 40
2.5606056146989982  -2.7736742156949390 8.0936630465652932 0.0000000000000000 18.0000000000000000 41
2.6210364129358212  -2.7983910812637909 8.2133768863218162 0.0000000000000000 18.0000000000000000 42
2.6814684977564904  -2.8219784968399901 8.3287696692034352 0.0000000000000000 18.0000000000000000 43
2.7419036391017291  -2.8444903916570721 8.4399559776893653 0.0000000000000000 18.0000000000000000 44
2.8023433953034518  -2.8659784167901199 8.5470545364664687 0.0000000000000000 18.0000000000000000 45
2.8627891315353469  -2.8864919918706460 8.6501870238369953 0.0000000000000000 18.0000000000000000 46
2.9232420369569923  -2.9060783580723282 8.7494770284736170 0.0000000000000000 18.0000000000000000 47
2.9837031406175125  -2.9247826360941742 8.8450491387611923 0.0000000000000000 18.0000000000000000 48
3.0441733261848234  -2.9426478880296365 8.9370281525910471 0.0000000000000000 18.0000000000000000 49
3.1046533455658829  -2.9597151821544436 9.0255383961569340 0.0000000000000000 18.0000000000000000 50
3.1651438314822968  -2.9760236597941483 9.1107031410182309 0.0000000000000000 18.0000000000000000 51
3.2256453090640669  -2.9916106035464862 9.1926441094266682 0.0000000000000000 18.0000000000000000 52
3.2861582065224670  -3.0065115062348422 9.2714810586425571 0.0000000000000000 18.0000000000000000 53
3.3466828649609459  -3.0207601400589548 9.3473314356838415 0.0000000000000000 18.0000000000000000 54
3.4072195473807043  -3.0343886254885897 9.4203100946474621 0.0000000000000000 18.0000000000000000 55
3.4677684469352124  -3.0474274995162238 9.4905290694108402 0.0000000000000000 18.0000000000000000 56
3.5283296944854712  -3.0599057829470730 9.5580973951576649 0.0000000000000000 18.0000000000000000 57
3.5889033655053177  -3.0718510464594777 9.6231209727729734 0.0000000000000000 18.0000000000000000 58
3.6494894863835410  -3.0832894752169859 9.6857024707166914 0.0000000000000000 18.0000000000000000 59
3.7100880401670593  -3.0942459318557294 9.7459412595108965 0.0000000000000000 18.0000000000000000 60
3.7706989717869295  -3.1047440177077714 9.8039333744646733 0.0000000000000000 18.0000000000000000 61
3.8313221928065224  -3.1148061321534164 9.8597715027117534 0.0000000000000000 18.0000000000000000 62
3.8919575857288073  -3.1244535300235716 9.9135449910514826 0.0000000000000000 18.0000000000000000 63
3.9526050078974033  -3.1337063769976501 9.9653398714644119 0.0000000000000000 18.0000000000000000 64
4.0132642950238138  -3.1425838029634661 10.0152389015214816 0.0000000000000000 18.0000000000000000 65
4.0739352643711317  -3.1511039533236209 10.0633216172223481 0.0000000000000000 18.0000000000000000 66
4.1346177176224579  -3.1592840382482654 10.1096643960857637 0.0000000000000000 18.0000000000000000 67
4.1953114434603158  -3.1671403798871358 10.1543405285747657 0.0000000000000000 18.0000000000000000 68
4.2560162198815021  -3.1746884575647281 10.1974202961741707 0.0000000000000000 18.0000000000000000 69
4.3167318162700319  -3.1819429509915933 10.2389710546488271 0.0000000000000000 18.0000000000000000 70
4.3774579952492054  -3.1889177815322567 10.2790573212007459 0.0000000000000000 18.0000000000000000 71
4.4381945143322206  -3.1956261515763087 10.3177408644126931 0.0000000000000000 18.0000000000000000 72
4.4989411273893003  -3.2020805820641289 10.3550807960175675 0.0000000000000000 18.0000000000000000 73
4.5596975859479185  -3.2082929482223896 10.3911336636676594 0.0000000000000000 18.0000000000000000 74
4.6204636403413994  -3.2142745135673714 10.4259535439980002 0.0000000000000000 18.0000000000000000 75
4.6812390407199409  -3.2200359622360812 10.4595921353843018 0.0000000000000000 18.0000000000000000 76
4.7420235379370261  -3.2255874297064899 10.4920988498899934 0.0000000000000000 18.0000000000000000 77
4.8028168843230725  -3.2309385319688770 10.5235209039797919 0.0000000000000000 18.0000000000000000 78
4.8636188343572124  -3.2360983932104723 10.5539034076501856 0.0000000000000000 18.0000000000000000 79
4.9244291452472000  -3.2410756720753273 10.5832894516912077 0.0000000000000000 18.0000000000000000 80
4.9852475774265796  -3.2458785865607043 10.6117201928496883 0.0000000000000000 18.0000000000000000 81
5.0460738949774369  -3.2505149376103857 10.6392349367130929 0.0000000000000000 18.0000000000000000 82
5.1069078659864005  -3.2549921314640811 10.6658712181752371 0.0000000000000000 18.0000000000000000 83
5.1677492628408226  -3.2593172008207731 10.6916648793819498 0.0000000000000000 18.0000000000000000 84
5.2285978624714664  -3.2634968248722771 10.7166501450862839 0.0000000000000000 18.0000000000000000 85
5.2894534465475171  -3.2675373482616128 10.7408596953698954 0.0000000000000000 18.0000000000000000 86
5.3503158016290957  -3.2714447990190454 10.7643247357105629 0.0000000000000000 18.0000000000000000 87
5.4111847192820939  -3.2752249055268043 10.7870750643951752 0.0000000000000000 18.0000000000000000 88
5.4720599961596017  -3.2788831125616116 10.8091391372942507 0.0000000000000000 18.0000000000000000 89
5.5329414340538925  -3.2824245964622571 10.8305441300278407 0.0000000000000000 18.0000000000000000 90
5.5938288399224581  -3.2858542794675305 10.8513159975640434 0.0000000000000000 18.0000000000000000 91
5.6547220258913189  -3.2891768432679402 10.8714795313008832 0.0000000000000000 18.0000000000000000 92
5.7156208092384979  -3.2923967418127411 10.8910584136897430 0.0000000000000000 18.0000000000000000 93
5.7765250123602483  -3.2955182134119245 10.9100752704645849 0.0000000000000000 18.0000000000000000 94
5.8374344627223937  -3.2985452921710485 10.9285517205459080 0.0000000000000000 18.0000000000000000 95
5.8983489927988755  -3.3014818187949313 10.9465084236916574 0.0000000000000000 18.0000000000000000 96
5.9592684399993994  -3.3043314507945816 10.9639651259699757 0.0000000000000000 18.0000000000000000 97
6.0201926465878728  -3.3070976721299683 10.9809407031300523 0.0000000000000000 18.0000000000000000 98
6.0811214595931578  -3.3097838023196937 10.9974532019482929 0.0000000000000000 18.0000000000000000 99
6.1420547307134665  -3.3123930050469950 11.0135198796272036 0.0000000000000000 18.0000000000000000 100
6.2029923162156297  -3.3149282962900273 11.0291572413240431 0.0000000000000000 18.0000000000000000 101
6.2639340768302905  -3.3173925520029055 11.0443810758855445 0.0000000000000000 18.0000000000000000 102
6.3248798776439719  -3.3197885153726174 11.0592064898639322 0.0000000000000000 18.0000000000000000 103
6.3858295879888685  -3.3221188036755613 11.0736479398879410 0.0000000000000000 18.0000000000000000 104
6.4467830813310902  -3.3243859147561929 11.0877192634609703 0.0000000000000000 18.0000000000000000 105
6.5077402351580087  -3.3265922331490612 11.1014337082565717 0.0000000000000000 18.0000000000000000 106
6.5687009308652780  -3.3287400358643442 11.1148039599795183 0.0000000000000000 18.0000000000000000 107
6.6296650536440342  -3.3308314978558884 11.1278421688585496 0.0000000000000000 18.0000000000000000 108
6.6906324923686844  -3.3328686971897126 11.1405599748346944 0.0000000000000000 18.0000000000000000 109
6.7516031394856730  -3.3348536199299237 11.1529685315068221 0.0000000000000000 18.0000000000000000 110
6.8125768909035447  -3.3367881647580777 11.1650785288938064 0.0000000000000000 18.0000000000000000 111
6.8735536458845576  -3.3386741473410644 11.1769002150703614 0.0000000000000000 18.0000000000000000 112
6.9345333069381105  -3.3405133044618012 11.1884434167313565 0.0000000000000000 18.0000000000000000 113
6.9955157797161389  -3.3423072979261699 11.1997175587371345 0.0000000000000000 18.0000000000000000 114
7.0565009729106585  -3.3440577182588878 11.2107316826901435 0.0000000000000000 18.0000000000000000 115
7.1174887981535875  -3.3457660882002704 11.2214944645909789 0.0000000000000000 18.0000000000000000 116
7.1784791699189361  -3.3474338660151721 11.2320142316198126 0.0000000000000000 18.0000000000000000 117
7.2394720054274542  -3.3490624486247187 11.2422989780870850 0.0000000000000000 18.0000000000000000 118
7.3004672245537856  -3.3506531745708736 11.2523563805953373 0.0000000000000000 18.0000000000000000 119
7.3614647497361796  -3.3522073268232573 11.2621938124520344 0.0000000000000000 18.0000000000000000 120
7.4224645058887635  -3.3537261354371433 11.2718183573714388 0.0000000000000000 18.0000000000000000 121
7.4834664203164145  -3.3552107800709878 11.2812368225016382 0.0000000000000000 18.0000000000000000 122
7.5444704226322035  -3.3566623923714194 11.2904557508111836 0.0000000000000000 18.0000000000000000 123
7.6054764446774099  -3.3580820582331121 11.2994814328680171 0.0000000000000000 18.0000000000000000 124
7.6664844204440756  -3.3594708199405634 11.3083199180417928 0.0000000000000000 18.0000000000000000 125
7.7274942860000841  -3.3608296781983871 11.3169770251591508 0.0000000000000000 18.0000000000000000 126
7.7885059794167182  -3.3621595940563243 11.3254583526399237 0.0000000000000000 18.0000000000000000 127
7.8495194406986455  -3.3634614907348674 11.3337692881409460 0.0000000000000000 18.0000000000000000 128
7.9105346117163018  -3.3647362553569913 11.3419150177327470 0.0000000000000000 18.0000000000000000 129
7.9715514361406079  -3.3659847405912071 11.3499005346330133 0.0000000000000000 18.0000000000000000 130
8.0325698593799828  -3.3672077662108517 11.3577306475196362 0.0000000000000000 18.0000000000000000 131
8.0935898285195744  -3.3684061205742051 11.3654099884448350 0.0000000000000000 18.0000000000000000 132
8.1546112922626612  -3.3695805620298236 11.3729430203708404 0.0000000000000000 18.0000000000000000 133
8.2156342008741792  -3.3707318202511525 11.3803340443464318 0.0000000000000000 18.0000000000000000 134
8.2766585061262852  -3.3718605975043143 11.3875872063427614 0.0000000000000000 18.0000000000000000 135
8.3376841612459174  -3.3729675698526935 11.3947065037658071 0.0000000000000000 18.0000000000000000 136
8.3987111208642791  -3.3740533883017632 11.4016957916619361 0.0000000000000000 18.0000000000000000 137
8.4597393409682056  -3.3751186798873860 11.4085587886322326 0.0000000000000000 18.0000000000000000 138
8.5207687788533146  -3.3761640487106281 11.4152990824702982 0.0000000000000000 18.0000000000000000 139
8.5817993930789296  -3.3771900769219920 11.4219201355376363 0.0000000000000000 18.0000000000000000 140
8.6428311434246634  -3.3781973256577364 11.4284252898897822 0.0000000000000000 18.0000000000000000 141
8.7038639908486637  -3.3791863359308802 11.4348177721658502 0.0000000000000000 18.0000000000000000 142
8.7648978974473941  -3.3801576294792817 11.4411006982533188 0.0000000000000000 18.0000000000000000 143
8.8259328264169650  -3.3811117095730698 11.4472770777393897 0.0000000000000000 18.0000000000000000 144
8.8869687420159025  -3.3820490617835741 11.4533498181595625 0.0000000000000000 18.0000000000000000 145
8.9480056095293286  -3.3829701547157862 11.4593217290535812 0.0000000000000000 18.0000000000000000 146
9.0090433952344995  -3.3838754407062472 11.4651955258382809 0.0000000000000000 18.0000000000000000 147
9.0700820663676573  -3.3847653564881801 11.4709738335064824 0.0000000000000000 18.0000000000000000 148
9.1311215910921142  -3.3856403238255659 11.4766591901604755 0.0000000000000000 18.0000000000000000 149
9.1921619384675477  -3.3865007501177562 11.4822540503882795 0.0000000000000000 18.0000000000000000 150
9.2532030784204871  -3.3873470289761674 11.4877607884903750 0.0000000000000000 18.0000000000000000 151
9.3142449817158663  -3.3881795407744590 11.4931817015642466 0.0000000000000000 18.0000000000000000 152
9.3752876199296882  -3.3889986531735752 11.4985190124536487 0.0000000000000000 18.0000000000000000 153
9.4363309654226892  -3.3898047216229146 11.5037748725691902 0.0000000000000000 18.0000000000000000 154
9.4973749913150147  -3.3905980898388357 11.5089513645864212 0.0000000000000000 18.0000000000000000 155
9.5584196714618326  -3.3913790902616601 11.5140505050273987 0.0000000000000000 18.0000000000000000 156
9.6194649804298624  -3.3921480444922176 11.5190742467312539 0.0000000000000000 18.0000000000000000 157
9.6805108934747768  -3.3929052637089954 11.5240244812191044 0.0000000000000000 18.0000000000000000 158
9.7415573865194407  -3.3936510490668224 11.5289030409583741 0.0000000000000000 18.0000000000000000 159
9.8026044361329792  -3.3943856920780262 11.5337117015312298 0.0000000000000000 18.0000000000000000 160
9.8636520195105817  -3.3951094749769055 11.5384521837116960 0.0000000000000000 18.0000000000000000 161
9.9247001144540885  -3.3958226710683581 11.5431261554557789 0.0000000000000000 18.0000000000000000 162
9.9857486993532572  -3.3965255450614249 11.5477352338086199 0.0000000000000000 18.0000000000000000 163
10.0467977531677413  -3.3972183533884737 11.5522809867325655 0.0000000000000000 18.0000000000000000 164
10.1078472554097125  -3.3979013445107449 11.5567649348598600 0.0000000000000000 18.0000000000000000 165
10.1688971861271060  -3.3985747592108808 11.5611885531734018 0.0000000000000000 18.0000000000000000 166
10.2299475258874928  -3.3992388308730930 11.5655532726188923 0.0000000000000000 18.0000000000000000 167
10.2909982557625046  -3.3998937857515310 11.5698604816515385 0.0000000000000000 18.0000000000000000 168
10.3520493573128469  -3.4005398432274276 11.5741115277202518 0.0000000000000000 18.0000000000000000 169
10.4131008125738251  -3.4011772160555491 11.5783077186922618 0.0000000000000000 18.0000000000000000 170
10.4741526040413842  -3.4018061106004400 11.5824503242207228 0.0000000000000000 18.0000000000000000 171
10.5352047146586578  -3.4024267270629549 11.5865405770579954 0.0000000000000000 18.0000000000000000 172
10.5962571278029696  -3.4030392596975165 11.5905796743169471 0.0000000000000000 18.0000000000000000 173
10.6573098272733073  -3.4036438970205349 11.5945687786826550 0.0000000000000000 18.0000000000000000 174
10.7183627972782194  -3.4042408220103955 11.5985090195766674 0.0000000000000000 18.0000000000000000 175
10.7794160224241420  -3.4048302122993919 11.6024014942759273 0.0000000000000000 18.0000000000000000 176
10.8404694877041106  -3.4054122403579843 11.6062472689883798 0.0000000000000000 18.0000000000000000 177
10.9015231784868725  -3.4059870736717248 11.6100473798871064 0.0000000000000000 18.0000000000000000 178
10.9625770805063780  -3.4065548749111700 11.6138028341048560 0.0000000000000000 18.0000000000000000 179
11.0236311798515949  -3.4071158020951220 11.6175146106906304 0.0000000000000000 18.0000000000000000 180
11.0846854629567027  -3.4076700087474547 11.6211836615299813 0.0000000000000000 18.0000000000000000 181
11.1457399165915891  -3.4082176440478600 11.6248109122306023 0.0000000000000000 18.0000000000000000 182
11.2067945278526810  -3.4087588529767365 11.6283972629746497 0.0000000000000000 18.0000000000000000 183
11.2678492841540567  -3.4092937764545042 11.6319435893392420 0.0000000000000000 18.0000000000000000 184
11.3289041732188842  -3.4098225514755858 11.6354507430864729 0.0000000000000000 18.0000000000000000 185
11.3899591830710936  -3.4103453112372804 11.6389195529242340 0.0000000000000000 18.0000000000000000 186
11.4510143020273674  -3.4108621852637473 11.6423508252390100 0.0000000000000000 18.0000000000000000 187
11.5120695186893585  -3.4113732995253265 11.6457453448019237 0.0000000000000000 18.0000000000000000 188
11.5731248219361653  -3.4118787765533805 11.6491038754490326 0.0000000000000000 18.0000000000000000 189
11.6341802009170578  -3.4123787355508481 11.6524271607369982 0.0000000000000000 18.0000000000000000 190
11.6952356450444110  -3.4128732924987055 11.6557159245751336 0.0000000000000000 18.0000000000000000 191
11.7562911439868927  -3.4133625602584954 11.6589708718347786 0.0000000000000000 18.0000000000000000 192
11.8173466876628321  -3.4138466486710879 11.6621926889369441 0.0000000000000000 18.0000000000000000 193
11.8784022662338238  -3.4143256646518356 11.6653820444190579 0.0000000000000000 18.0000000000000000 194
