 # inv_tmp, energy, phys_var, phys_doublon, phys_num, step_i
0.0681057370177751  -0.1161017056171842 1.6867749920036479 0.0000000000000000 18.0000000000000000 1
0.1356862846444194  -0.2297665842382895 1.7140178226043563 0.0000000000000000 18.0000000000000000 2
0.2027568115829786  -0.3421007691743496 1.7617657071865844 0.0000000000000000 18.0000000000000000 3
0.2693346447405934  -0.4528256714063268 1.8291507537422387 0.0000000000000000 18.0000000000000000 4
0.3354389257367244  -0.5616862198893692 1.9151363268509880 0.0000000000000000 18.0000000000000000 5
0.4010902615176107  -0.6684526560067404 2.0185453832900926 0.0000000000000000 18.0000000000000000 6
0.4663103791881021  -0.7729216951497968 2.1380899266840174 0.0000000000000000 18.0000000000000000 7
0.5311217938142461  -0.8749170836996807 2.2724004827191395 0.0000000000000000 18.0000000000000000 8
0.5955474963817936  -0.9742895979879338 2.4200546273745136 0.0000000000000000 18.0000000000000000 9
0.6596106674356300  -1.0709165457466749 2.5796037656355693 0.0000000000000000 18.0000000000000000 10
0.7233344202764336  -1.1647008400241183 2.7495975411469211 0.0000000000000000 18.0000000000000000 11
0.7867415760374639  -1.2555697207200134 2.9286054435483542 0.0000000000000000 18.0000000000000000 12
0.8498544715687290  -1.3434732001905352 3.1152353576154885 0.0000000000000000 18.0000000000000000 13
0.9126947998591030  -1.4283823073413948 3.3081489576093004 0.0000000000000000 18.0000000000000000 14
0.9752834817509888  -1.5102871999216942 3.5060739854043406 0.0000000000000000 18.0000000000000000 15
1.0376405669517368  -1.5891952080343019 3.7078135589560328 0.0000000000000000 18.0000000000000000 16
1.0997851618126264  -1.6651288638613946 3.9122527379594425 0.0000000000000000 18.0000000000000000 17
1.1617353810110762  -1.7381239638829340 4.1183626275995309 0.0000000000000000 18.0000000000000000 18
1.2235083201094896  -1.8082277009766874 4.3252023319350332 0.0000000000000000 18.0000000000000000 19
1.2851200459456542  -1.8754968951683009 4.5319190793563298 0.0000000000000000 18.0000000000000000 20
1.3465856019047839  -1.9399963437822256 4.7377468377156404 0.0000000000000000 18.0000000000000000 21
1.4079190253029128  -2.0017973045597799 4.9420037201105824 0.0000000000000000 18.0000000000000000 22
1.4691333743486910  -2.0609761190968232 5.1440884575665793 0.0000000000000000 18.0000000000000000 23
1.5302407624224132  -2.1176129787672604 5.3434761851894619 0.0000000000000000 18.0000000000000000 24
1.5912523976978854  -2.1717908311318554 5.5397137563664831 0.0000000000000000 18.0000000000000000 25
1.6521786264192071  -2.2235944216276562 5.7324147673272385 0.0000000000000000 18.0000000000000000 26
1.7130289784191628  -2.2731094630009738 5.9212544433379843 0.0000000000000000 18.0000000000000000 27
1.7738122137207066  -2.3204219233758234 6.1059645090166850 0.0000000000000000 18.0000000000000000 28
1.8345363692929668  -2.3656174229204794 6.2863281393428938 0.0000000000000000 18.0000000000000000 29
1.8952088052357579  -2.4087807286681513 6.4621750651972736 0.0000000000000000 18.0000000000000000 30
1.9558362498411581  -2.4499953370509875 6.6333768877600416 0.0000000000000000 18.0000000000000000 31
2.0164248431280836  -2.4893431340176662 6.7998426397132352 0.0000000000000000 18.0000000000000000 32
2.0769801785677773  -2.5269041231349649 6.9615146177032265 0.0000000000000000 18.0000000000000000 33
2.1375073428171176  -2.5627562127481278 7.1183644996357973 0.0000000000000000 18.0000000000000000 34
2.1980109533553893  -2.5969750540328276 7.2703897517750411 0.0000000000000000 18.0000000000000000 35
2.2584951939814073  -2.6296339225651373 7.4176103239741167 0.0000000000000000 18.0000000000000000 36
2.3189638481744312  -2.6608036368291645 7.5600656263691981 0.0000000000000000 18.0000000000000000 37
2.3794203303566892  -2.6905525078484778 7.6978117772316459 0.0000000000000000 18.0000000000000000 38
2.4398677151198109  -2.7189463148496014 7.8309191091422612 0.0000000000000000 18.0000000000000000 39
2.5003087644941533  -2.7460483025323903 7.9594699190035030 0.0000000000000000 18.0000000000000000 40
2.5607459533505041  -2.7719191961273690 8.0835564464519365 0.0000000000000000 18.0000000000000000 41
2.6211814930295536  -2.7966172309621582 8.2032790648156659 0.0000000000000000 18.0000000000000000 42
2.6816173532968497  -2.8201981937390794 8.3187446687502700 0.0000000000000000 18.0000000000000000 43
2.7420552827208735  -2.8427154731467645 8.4300652429760845 0.0000000000000000 18.0000000000000000 44
2.8024968275698798  -2.8642201177945381 8.5373565970454877 0.0000000000000000 18.0000000000000000 45
2.8629433493200969  -2.8847608997741858 8.6407372517241079 0.0000000000000000 18.0000000000000000 46
2.9233960408639863  -2.9043843824249880 8.7403274633232186 0.0000000000000000 18.0000000000000000 47
2.9838559415029993  -2.9231349911094564 8.8362483731313066 0.0000000000000000 18.0000000000000000 48
3.0443239508048077  -2.9410550860043658 8.9286212699314795 0.0000000000000000 18.0000000000000000 49
3.1048008414004880  -2.9581850360787758 9.0175669544345727 0.0000000000000000 18.0000000000000000 50
3.1652872707927675  -2.9745632935722162 9.1032051952894122 0.0000000000000000 18.0000000000000000 51
3.2257837922421677  -2.9902264684056847 9.1856542671397552 0.0000000000000000 18.0000000000000000 52
3.2862908647938811  -3.0052094020589415 9.2650305619735800 0.0000000000000000 18.0000000000000000 53
3.3468088625043562  -3.0195452405326710 9.3414482657493139 0.0000000000000000 18.0000000000000000 54
3.4073380829229811  -3.0332655060857987 9.4150190929818294 0.0000000000000000 18.0000000000000000 55
3.4678787548808607  -3.0464001674988692 9.4858520726271571 0.0000000000000000 18.0000000000000000 56
3.5284310456354833  -3.0589777086654628 9.5540533792176561 0.0000000000000000 18.0000000000000000 57
3.5889950674171067  -3.0710251953569156 9.6197262037700817 0.0000000000000000 18.0000000000000000 58
3.6495708834198464  -3.0825683400421000 9.6829706595174692 0.0000000000000000 18.0000000000000000 59
3.7101585132778121  -3.0936315646750234 9.7438837180044793 0.0000000000000000 18.0000000000000000 60
3.7707579380641394  -3.1042380613891378 9.8025591715353837 0.0000000000000000 18.0000000000000000 61
3.8313691048483842  -3.1144098510594853 9.8590876183771705 0.0000000000000000 18.0000000000000000 62
3.8919919308455304  -3.1241678397125190 9.9135564674983989 0.0000000000000000 18.0000000000000000 63
3.9526263071877343  -3.1335318727793107 9.9660499599701673 0.0000000000000000 18.0000000000000000 64
4.0132721023479299  -3.1425207872012093 10.0166492044704505 0.0000000000000000 18.0000000000000000 65
4.0739291652425074  -3.1511524614082216 10.0654322246195562 0.0000000000000000 18.0000000000000000 66
4.1345973280385193  -3.1594438631997317 10.1124740161342910 0.0000000000000000 18.0000000000000000 67
4.1952764086890975  -3.1674110955649946 10.1578466120236239 0.0000000000000000 18.0000000000000000 68
4.2559662132192084  -3.1750694404871567 10.2016191542612127 0.0000000000000000 18.0000000000000000 69
4.3166665377823268  -3.1824334007797912 10.2438579705616188 0.0000000000000000 18.0000000000000000 70
4.3773771705071489  -3.1895167400090259 10.2846266550593946 0.0000000000000000 18.0000000000000000 71
4.4380978931521264  -3.1963325205575996 10.3239861518447960 0.0000000000000000 18.0000000000000000 72
4.4988284825843037  -3.2028931398895799 10.3619948404484425 0.0000000000000000 18.0000000000000000 73
4.5595687120977342  -3.2092103650762192 10.3987086224909060 0.0000000000000000 18.0000000000000000 74
4.6203183525856026  -3.2152953656445895 10.4341810088237050 0.0000000000000000 18.0000000000000000 75
4.6810771735791281  -3.2211587448112038 10.4684632065861898 0.0000000000000000 18.0000000000000000 76
4.7418449441652983  -3.2268105691630637 10.5016042056901568 0.0000000000000000 18.0000000000000000 77
4.8026214337945650  -3.2322603968482966 10.5336508643209719 0.0000000000000000 18.0000000000000000 78
4.8634064129887307  -3.2375173043380490 10.5646479931122617 0.0000000000000000 18.0000000000000000 79
4.9241996539584463  -3.2425899118204544 10.5946384377112217 0.0000000000000000 18.0000000000000000 80
4.9850009311390027  -3.2474864072864449 10.6236631595043001 0.0000000000000000 18.0000000000000000 81
5.0458100216523007  -3.2522145693659215 10.6517613143191738 0.0000000000000000 18.0000000000000000 82
5.1066267057023467  -3.2567817889713870 10.6789703289592577 0.0000000000000000 18.0000000000000000 83
5.1674507669108802  -3.2611950898045983 10.7053259754620029 0.0000000000000000 18.0000000000000000 84
5.2282819925992632  -3.2654611477801643 10.7308624430027137 0.0000000000000000 18.0000000000000000 85
5.2891201740221883  -3.2695863094182833 10.7556124073916397 0.0000000000000000 18.0000000000000000 86
5.3499651065582716  -3.2735766092570433 10.7796070981348127 0.0000000000000000 18.0000000000000000 87
5.4108165898621783  -3.2774377863329129 10.8028763630482132 0.0000000000000000 18.0000000000000000 88
5.4716744279824630  -3.2811752997761703 10.8254487304311482 0.0000000000000000 18.0000000000000000 89
5.5325384294489925  -3.2847943435662499 10.8473514688185979 0.0000000000000000 18.0000000000000000 90
5.5934084073333876  -3.2882998604900813 10.8686106443437112 0.0000000000000000 18.0000000000000000 91
5.6542841792856491  -3.2916965553447257 10.8892511757511414 0.0000000000000000 18.0000000000000000 92
5.7151655675498425  -3.2949889074237912 10.9092968871098268 0.0000000000000000 18.0000000000000000 93
5.7760523989613768  -3.2981811823253739 10.9287705582799131 0.0000000000000000 18.0000000000000000 94
5.8369445049282600  -3.3012774431175136 10.9476939731936422 0.0000000000000000 18.0000000000000000 95
5.8978417213983949  -3.3042815608955083 10.9660879660137134 0.0000000000000000 18.0000000000000000 96
5.9587438888148254  -3.3071972247637529 10.9839724652354889 0.0000000000000000 18.0000000000000000 97
6.0196508520606322  -3.3100279512732440 11.0013665358013881 0.0000000000000000 18.0000000000000000 98
6.0805624603950168  -3.3127770933442857 11.0182884192969830 0.0000000000000000 18.0000000000000000 99
6.1414785673819159  -3.3154478487025134 11.0347555722989767 0.0000000000000000 18.0000000000000000 100
6.2023990308124128  -3.3180432678549061 11.0507847029452577 0.0000000000000000 18.0000000000000000 101
6.2633237126220020  -3.3205662616310669 11.0663918057968402 0.0000000000000000 18.0000000000000000 102
6.3242524788037020  -3.3230196083137802 11.0815921950608214 0.0000000000000000 18.0000000000000000 103
6.3851851993178839  -3.3254059603815742 11.0964005362423315 0.0000000000000000 18.0000000000000000 104
6.4461217479995785  -3.3277278508847878 11.1108308762921340 0.0000000000000000 18.0000000000000000 105
6.5070620024639423  -3.3299876994755553 11.1248966723151241 0.0000000000000000 18.0000000000000000 106
6.5680058440104858  -3.3321878181109530 11.1386108189030821 0.0000000000000000 18.0000000000000000 107
6.6289531575265981  -3.3343304164475596 11.1519856741534369 0.0000000000000000 18.0000000000000000 108
6.6899038313908070  -3.3364176069446687 11.1650330844337482 0.0000000000000000 18.0000000000000000 109
6.7508577573762159  -3.3384514096924285 11.1777644079496312 0.0000000000000000 18.0000000000000000 110
6.8118148305544235  -3.3404337569803104 11.1901905371719010 0.0000000000000000 18.0000000000000000 111
6.8727749492002719  -3.3423664976204486 11.2023219201766757 0.0000000000000000 18.0000000000000000 112
6.9337380146976475  -3.3442514010395530 11.2141685809499521 0.0000000000000000 18.0000000000000000 113
6.9947039314465869  -3.3460901611523850 11.2257401387063958 0.0000000000000000 18.0000000000000000 114
7.0556726067718500  -3.3478844000289953 11.2370458262698030 0.0000000000000000 18.0000000000000000 115
7.1166439508331329  -3.3496356713672837 11.2480945075608449 0.0000000000000000 18.0000000000000000 116
7.1776178765370497  -3.3513454637817572 11.2588946942357175 0.0000000000000000 18.0000000000000000 117
7.2385942994509804  -3.3530152039187606 11.2694545615173531 0.0000000000000000 18.0000000000000000 118
7.2995731377188795  -3.3546462594078625 11.2797819632590084 0.0000000000000000 18.0000000000000000 119
7.3605543119791017  -3.3562399416585436 11.2898844462783270 0.0000000000000000 18.0000000000000000 120
7.4215377452842954  -3.3577975085107838 11.2997692639979679 0.0000000000000000 18.0000000000000000 121
7.4825233630234109  -3.3593201667476791 11.3094433894275106 0.0000000000000000 18.0000000000000000 122
7.5435110928458169  -3.3608090744777561 11.3189135275194275 0.0000000000000000 18.0000000000000000 123
7.6045008645875596  -3.3622653433941876 11.3281861269305111 0.0000000000000000 18.0000000000000000 124
7.6654926101997498  -3.3636900409177253 11.3372673912185462 0.0000000000000000 18.0000000000000000 125
7.7264862636790799  -3.3650841922297676 11.3461632895025630 0.0000000000000000 18.0000000000000000 126
7.7874817610004392  -3.3664487822016049 11.3548795666136648 0.0000000000000000 18.0000000000000000 127
7.8484790400516182  -3.3677847572255613 11.3634217527619992 0.0000000000000000 18.0000000000000000 128
7.9094780405700673  -3.3690930269533843 11.3717951727442337 0.0000000000000000 18.0000000000000000 129
7.9704787040816738  -3.3703744659469761 11.3800049547146127 0.0000000000000000 18.0000000000000000 130
8.0314809738415356  -3.3716299152462326 11.3880560385416167 0.0000000000000000 18.0000000000000000 131
8.0924847947766647  -3.3728601838584971 11.3959531837709367 0.0000000000000000 18.0000000000000000 132
8.1534901134306121  -3.3740660501738811 11.4037009772146458 0.0000000000000000 18.0000000000000000 133
8.2144968779099283  -3.3752482633104544 11.4113038401852496 0.0000000000000000 18.0000000000000000 134
8.2755050378324615  -3.3764075443930852 11.4187660353924407 0.0000000000000000 18.0000000000000000 135
8.3365145442774082  -3.3775445877694890 11.4260916735194371 0.0000000000000000 18.0000000000000000 136
8.3975253497370783  -3.3786600621668574 11.4332847194949352 0.0000000000000000 18.0000000000000000 137
8.4585374080703346  -3.3797546117922228 11.4403489984757876 0.0000000000000000 18.0000000000000000 138
8.5195506744576441  -3.3808288573795640 11.4472882015549473 0.0000000000000000 18.0000000000000000 139
8.5805651053577190  -3.3818833971864546 11.4541058912081617 0.0000000000000000 18.0000000000000000 140
8.6415806584656600  -3.3829188079429438 11.4608055064925054 0.0000000000000000 18.0000000000000000 141
8.7025972926725785  -3.3839356457551588 11.4673903680089690 0.0000000000000000 18.0000000000000000 142
8.7636149680266549  -3.3849344469660108 11.4738636826407436 0.0000000000000000 18.0000000000000000 143
8.8246336456955632  -3.3859157289752453 11.4802285480782587 0.0000000000000000 18.0000000000000000 144
8.8856532879302428  -3.3868799910209431 11.4864879571414384 0.0000000000000000 18.0000000000000000 145
8.9466738580299445  -3.3878277149244740 11.4926448019090692 0.0000000000000000 18.0000000000000000 146
9.0076953203085317  -3.3887593658007837 11.4987018776647449 0.0000000000000000 18.0000000000000000 147
9.0687176400619744  -3.3896753927358079 11.5046618866682984 0.0000000000000000 18.0000000000000000 148
9.1297407835370077  -3.3905762294326660 11.5105274417611056 0.0000000000000000 18.0000000000000000 149
9.1907647179008976  -3.3914622948282585 11.5163010698134372 0.0000000000000000 18.0000000000000000 150
9.2517894112122967  -3.3923339936817491 11.5219852150213402 0.0000000000000000 18.0000000000000000 151
9.3128148323931299  -3.3931917171363564 11.5275822420603333 0.0000000000000000 18.0000000000000000 152
9.3738409512014762  -3.3940358432557955 11.5330944391027614 0.0000000000000000 18.0000000000000000 153
9.4348677382054280  -3.3948667375366472 11.5385240207053048 0.0000000000000000 18.0000000000000000 154
9.4958951647578598  -3.3956847533978416 11.5438731305728055 0.0000000000000000 18.0000000000000000 155
9.5569232029721132  -3.3964902326484037 11.5491438442042824 0.0000000000000000 18.0000000000000000 156
9.6179518256985137  -3.3972835059345279 11.5543381714266609 0.0000000000000000 18.0000000000000000 157
9.6789810065017488  -3.3980648931670077 11.5594580588215479 0.0000000000000000 18.0000000000000000 158
9.7400107196390131  -3.3988347039299578 11.5645053920499485 0.0000000000000000 18.0000000000000000 159
9.8010409400389431  -3.3995932378717844 11.5694819980798265 0.0000000000000000 18.0000000000000000 160
9.8620716432812827  -3.4003407850792100 11.5743896473208974 0.0000000000000000 18.0000000000000000 161
9.9231028055772512  -3.4010776264352254 11.5792300556709904 0.0000000000000000 18.0000000000000000 162
9.9841344037506126  -3.4018040339616977 11.5840048864780734 0.0000000000000000 18.0000000000000000 163
10.0451664152193878  -3.4025202711473899 11.5887157524217486 0.0000000000000000 18.0000000000000000 164
10.1061988179782070  -3.4032265932620969 11.5933642173179585 0.0000000000000000 18.0000000000000000 165
10.1672315905812791  -3.4039232476575205 11.5979517978503672 0.0000000000000000 18.0000000000000000 166
10.2282647121259256  -3.4046104740555485 11.6024799652317121 0.0000000000000000 18.0000000000000000 167
10.2892981622367028  -3.4052885048244974 11.6069501467983187 0.0000000000000000 18.0000000000000000 168
10.3503319210500511  -3.4059575652439147 11.6113637275408159 0.0000000000000000 18.0000000000000000 169
10.4113659691994815  -3.4066178737584263 11.6157220515737585 0.0000000000000000 18.0000000000000000 170
10.4724002878012445  -3.4072696422211859 11.6200264235470794 0.0000000000000000 18.0000000000000000 171
10.5334348584405024  -3.4079130761273748 11.6242781100017787 0.0000000000000000 18.0000000000000000 172
10.5944696631579571  -3.4085483748382082 11.6284783406723982 0.0000000000000000 18.0000000000000000 173
10.6555046844369272  -3.4091757317958997 11.6326283097386032 0.0000000000000000 18.0000000000000000 174
10.7165399051908583  -3.4097953347299748 11.6367291770280801 0.0000000000000000 18.0000000000000000 175
10.7775753087512527  -3.4104073658553364 11.6407820691728823 0.0000000000000000 18.0000000000000000 176
10.8386108788559863  -3.4110120020624519 11.6447880807212663 0.0000000000000000 18.0000000000000000 177
10.8996465996380234  -3.4116094151000027 11.6487482752068736 0.0000000000000000 18.0000000000000000 178
10.9606824556145011  -3.4121997717503501 11.6526636861771564 0.0000000000000000 18.0000000000000000 179
11.0217184316761561  -3.4127832339981201 11.6565353181827795 0.0000000000000000 18.0000000000000000 180
11.0827545130771163  -3.4133599591922223 11.6603641477296129 0.0000000000000000 18.0000000000000000 181
11.1437906854250102  -3.4139301002015814 11.6641511241949640 0.0000000000000000 18.0000000000000000 182
11.2048269346713933  -3.4144938055648595 11.6678971707095069 0.0000000000000000 18.0000000000000000 183
11.2658632471024909  -3.4150512196344343 11.6716031850063970 0.0000000000000000 18.0000000000000000 184
11.3268996093302388  -3.4156024827148785 11.6752700402389031 0.0000000000000000 18.0000000000000000 185
11.3879360082835852  -3.4161477311961712 11.6788985857678824 0.0000000000000000 18.0000000000000000 186
11.4489724312001044  -3.4166870976818804 11.6824896479203666 0.0000000000000000 18.0000000000000000 187
11.5100088656178468  -3.4172207111125159 11.6860440307204101 0.0000000000000000 18.0000000000000000 188
11.5710452993674551  -3.4177486968842690 11.6895625165933907 0.0000000000000000 18.0000000000000000 189
11.6320817205645231  -3.4182711769633283 11.6930458670448019 0.0000000000000000 18.0000000000000000 190
11.6931181176021983  -3.4187882699959635 11.6964948233146213 0.0000000000000000 18.0000000000000000 191
11.7541544791440113  -3.4193000914145300 11.6999101070081757 0.0000000000000000 18.0000000000000000 192
11.8151907941169174  -3.4198067535396168 11.7032924207045426 0.0000000000000000 18.0000000000000000 193
11.8762270517045607  -3.4203083656784337 11.7066424485433256 0.0000000000000000 18.0000000000000000 194
