 # inv_tmp, energy, phys_var, phys_doublon, phys_num, step_i
0.0737338965037198  -0.1245667845466598 1.6951005579082543 0.0000000000000000 18.0000000000000000 1
0.1467995287061173  -0.2480438817193305 1.7276361291580944 0.0000000000000000 18.0000000000000000 2
0.2192190578283801  -0.3698831636126178 1.7844651670663911 0.0000000000000000 18.0000000000000000 3
0.2910175684542559  -0.4897493044564850 1.8644184927284591 0.0000000000000000 18.0000000000000000 4
0.3622225221925673  -0.6073391004762808 1.9661030050103949 0.0000000000000000 18.0000000000000000 5
0.4328632200048604  -0.7223830656373544 2.0879442763917102 0.0000000000000000 18.0000000000000000 6
0.5029702871747037  -0.8346462146722893 2.2282300647425513 0.0000000000000000 18.0000000000000000 7
0.5725751916576299  -0.9439281217883505 2.3851530810892472 0.0000000000000000 18.0000000000000071 8
0.6417098034956200  -1.0500623520906827 2.5568516229634484 0.0000000000000000 18.0000000000000000 9
0.7104060002510181  -1.1529153652039956 2.7414469828697108 0.0000000000000000 18.0000000000000000 10
0.7786953210810361  -1.2523849885962519 2.9370768463126740 0.0000000000000000 17.9999999999999964 11
0.8466086701497819  -1.3483985531992246 3.1419241837868115 0.0000000000000000 18.0000000000000000 12
0.9141760685394409  -1.4409107772200083 3.3542414019793654 0.0000000000000000 18.0000000000000000 13
0.9814264526371217  -1.5299014763288443 3.5723697423292275 0.0000000000000000 17.9999999999999964 14
1.0483875160940925  -1.6153731701890197 3.7947540957383987 0.0000000000000000 18.0000000000000000 15
1.1150855918356177  -1.6973486468627383 4.0199535400113051 0.0000000000000000 18.0000000000000000 16
1.1815455702024860  -1.7758685381667398 4.2466480035913001 0.0000000000000000 18.0000000000000000 17
1.2477908490943308  -1.8509889506959034 4.4736415193476438 0.0000000000000000 18.0000000000000000 18
1.3138433119289388  -1.9227791891026427 4.6998625606676487 0.0000000000000000 17.9999999999999964 19
1.3797233293028608  -1.9913196004382923 4.9243619546020012 0.0000000000000000 18.0000000000000000 20
1.4454497804110742  -2.0566995610567287 5.1463088490392348 0.0000000000000000 18.0000000000000000 21
1.5110400905332568  -2.1190156208708477 5.3649851783002021 0.0000000000000000 18.0000000000000036 22
1.5765102811993330  -2.1783698137416629 5.5797790290579599 0.0000000000000000 18.0000000000000000 23
1.6418750299872313  -2.2348681375422887 5.7901772603260753 0.0000000000000000 18.0000000000000000 24
1.7071477372635200  -2.2886192030150339 5.9957576808832354 0.0000000000000000 18.0000000000000000 25
1.7723405975377018  -2.3397330469341897 6.1961810376180608 0.0000000000000000 18.0000000000000000 26
1.8374646734511912  -2.3883201022718392 6.3911830208739078 0.0000000000000000 18.0000000000000036 27
1.9025299707530416  -2.4344903159841431 6.5805664493025589 0.0000000000000000 18.0000000000000000 28
1.9675455129196773  -2.4783524036161810 6.7641937578129516 0.0000000000000000 18.0000000000000000 29
2.0325194143510683  -2.5200132290773110 6.9419798783063804 0.0000000000000000 18.0000000000000036 30
2.0974589513189326  -2.5595772975737683 7.1138855740690623 0.0000000000000000 18.0000000000000000 31
2.1623706300533052  -2.5971463497089369 7.2799112647500710 0.0000000000000000 18.0000000000000000 32
2.2272602515332034  -2.6328190450877313 7.4400913594285969 0.0000000000000000 18.0000000000000000 33
2.2921329726970514  -2.6666907243114304 7.5944890999123675 0.0000000000000000 18.0000000000000000 34
2.3569933639115823  -2.6988532389546043 7.7431919046059861 0.0000000000000000 18.0000000000000000 35
2.4218454626369583  -2.7293948399188217 7.8863071945323604 0.0000000000000000 18.0000000000000036 36
2.4866928233038883  -2.7584001154117441 8.0239586768899969 0.0000000000000000 18.0000000000000000 37
2.5515385634785028  -2.7859499706676920 8.1562830574270464 0.0000000000000000 18.0000000000000000 38
2.6163854064354815  -2.8121216423790774 8.2834271504996657 0.0000000000000000 18.0000000000000000 39
2.6812357202920256  -2.8369887416265076 8.4055453545982761 0.0000000000000000 18.0000000000000036 40
2.7460915538769473  -2.8606213198653001 8.5227974610626944 0.0000000000000000 18.0000000000000000 41
2.8109546695225482  -2.8830859532387034 8.6353467644073074 0.0000000000000000 18.0000000000000000 42
2.8758265729737009  -2.9044458411388572 8.7433584439266490 0.0000000000000000 18.0000000000000000 43
2.9407085406101983  -2.9247609155241112 8.8469981878772881 0.0000000000000000 18.0000000000000000 44
3.0056016441761577  -2.9440879580265218 8.9464310333954664 0.0000000000000000 18.0000000000000000 45
3.0705067732051212  -2.9624807223488450 9.0418203973041535 0.0000000000000000 18.0000000000000000 46
3.1354246553222520  -2.9799900598596545 9.1333272750051773 0.0000000000000000 18.0000000000000000 47
3.2003558745964136  -2.9966640466527013 9.2211095866807540 0.0000000000000000 17.9999999999999964 48
3.2653008881053758  -3.0125481106467058 9.3053216519986464 0.0000000000000000 18.0000000000000000 49
3.3302600408673979  -3.0276851575692696 9.3861137763960798 0.0000000000000000 17.9999999999999964 50
3.3952335792822530  -3.0421156948979746 9.4636319337883208 0.0000000000000000 18.0000000000000000 51
3.4602216632146341  -3.0558779530272497 9.5380175321966156 0.0000000000000000 18.0000000000000000 52
3.5252243768430107  -3.0690080030955493 9.6094072503115466 0.0000000000000000 18.0000000000000000 53
3.5902417383874528  -3.0815398710472066 9.6779329344000615 0.0000000000000000 18.0000000000000036 54
3.6552737088208600  -3.0935056476206935 9.7437215462305229 0.0000000000000000 18.0000000000000000 55
3.7203201996594117  -3.1049355940527352 9.8068951538344606 0.0000000000000000 18.0000000000000000 56
3.7853810799199810  -3.1158582433686810 9.8675709579529123 0.0000000000000000 17.9999999999999964 57
3.8504561823246948  -3.1263004971960369 9.9258613479365998 0.0000000000000000 18.0000000000000000 58
3.9155453088257821  -3.1362877180922135 9.9818739816907431 0.0000000000000000 18.0000000000000071 59
3.9806482355173642  -3.1458438174212633 10.0357118849850693 0.0000000000000000 18.0000000000000000 60
4.0457647169948059  -3.1549913388491841 10.0874735660956958 0.0000000000000000 17.9999999999999964 61
4.1108944902167330  -3.1637515375546696 10.1372531423156929 0.0000000000000000 17.9999999999999929 62
4.1760372779197246  -3.1721444552732465 10.1851404753728811 0.0000000000000000 18.0000000000000036 63
4.2411927916310415  -3.1801889913084729 10.2312213132336680 0.0000000000000000 17.9999999999999964 64
4.3063607343204762  -3.1879029696552768 10.2755774361568690 0.0000000000000000 18.0000000000000000 65
4.3715408027285454  -3.1953032023882137 10.3182868051976122 0.0000000000000000 17.9999999999999929 66
4.4367326894046499  -3.2024055494722612 10.3594237116541912 0.0000000000000000 18.0000000000000000 67
4.5019360844856520  -3.2092249751560051 10.3990589262045656 0.0000000000000000 18.0000000000000000 68
4.5671506772423234  -3.2157756011074583 10.4372598466992823 0.0000000000000000 18.0000000000000000 69
4.6323761574184728  -3.2220707564514974 10.4740906437674095 0.0000000000000000 18.0000000000000000 70
4.6976122163851270  -3.2281230248653499 10.5096124035555558 0.0000000000000000 18.0000000000000000 71
4.7628585481299135  -3.2339442888851058 10.5438832670603730 0.0000000000000000 18.0000000000000000 72
4.8281148500998317  -3.2395457715719282 10.5769585656348770 0.0000000000000000 18.0000000000000000 73
4.8933808239137404  -3.2449380756818225 10.6088909523512793 0.0000000000000000 18.0000000000000036 74
4.9586561759592840  -3.2501312204775981 10.6397305289897517 0.0000000000000000 17.9999999999999964 75
5.0239406178874599  -3.2551346763161373 10.6695249684960736 0.0000000000000000 18.0000000000000000 76
5.0892338670167288  -3.2599573971383764 10.6983196328125594 0.0000000000000000 17.9999999999999929 77
5.1545356466572976  -3.2646078509837415 10.7261576860386167 0.0000000000000000 18.0000000000000000 78
5.2198456863651508  -3.2690940486448778 10.7530802029197012 0.0000000000000000 18.0000000000000000 79
5.2851637221343850  -3.2734235705729251 10.7791262726991164 0.0000000000000000 18.0000000000000000 80
5.3504894965355243  -3.2776035921378863 10.8043330983956469 0.0000000000000000 18.0000000000000071 81
5.4158227588066632  -3.2816409073431672 10.8287360915933313 0.0000000000000000 18.0000000000000000 82
5.4811632649035786  -3.2855419510880313 10.8523689628481783 0.0000000000000000 18.0000000000000000 83
5.5465107775142641  -3.2893128200665354 10.8752638078308870 0.0000000000000000 18.0000000000000000 84
5.6118650660427738  -3.2929592923865649 10.8974511893356798 0.0000000000000000 18.0000000000000000 85
5.6772259065667310  -3.2964868459877787 10.9189602152932608 0.0000000000000000 18.0000000000000036 86
5.7425930817723287  -3.2999006759327245 10.9398186129314148 0.0000000000000000 18.0000000000000000 87
5.8079663808702957  -3.3032057106410555 10.9600527992302652 0.0000000000000000 17.9999999999999964 88
5.8733455994958224  -3.3064066271325512 10.9796879478207163 0.0000000000000000 18.0000000000000000 89
5.9387305395951913  -3.3095078653407901 10.9987480524750900 0.0000000000000000 18.0000000000000000 90
6.0041210093014401  -3.3125136415555199 11.0172559873378191 0.0000000000000000 17.9999999999999964 91
6.0695168228011935  -3.3154279610482424 11.0352335640422403 0.0000000000000000 17.9999999999999964 92
6.1349178001944882  -3.3182546299322020 11.0527015858568518 0.0000000000000000 18.0000000000000036 93
6.2003237673492171  -3.3209972663047571 11.0696798990009615 0.0000000000000000 18.0000000000000000 94
6.2657345557516182  -3.3236593107171908 11.0861874412661230 0.0000000000000000 18.0000000000000000 95
6.3311500023540388  -3.3262440360141281 11.1022422880751961 0.0000000000000000 18.0000000000000000 96
6.3965699494210471  -3.3287545565821501 11.1178616961068641 0.0000000000000000 17.9999999999999964 97
6.4619942443748339  -3.3311938370446539 11.1330621446084166 0.0000000000000000 18.0000000000000000 98
6.5274227396407207  -3.3335647004376834 11.1478593745152263 0.0000000000000000 18.0000000000000000 99
6.5928552924934207  -3.3358698358992651 11.1622684254902573 0.0000000000000000 18.0000000000000000 100
6.6582917649047024  -3.3381118059026846 11.1763036709923202 0.0000000000000000 18.0000000000000000 101
6.7237320233929099  -3.3402930530622394 11.1899788514768979 0.0000000000000000 18.0000000000000000 102
6.7891759388747719  -3.3424159065381569 11.2033071058287419 0.0000000000000000 18.0000000000000000 103
6.8546233865198714  -3.3444825880656732 11.2163010011207014 0.0000000000000000 18.0000000000000000 104
6.9200742456080251  -3.3464952176316625 11.2289725607887831 0.0000000000000000 18.0000000000000000 105
6.9855283993898389  -3.3484558188207325 11.2413332913090418 0.0000000000000000 18.0000000000000000 106
7.0509857349505891  -3.3503663238512598 11.2533942074575748 0.0000000000000000 18.0000000000000000 107
7.1164461430776287  -3.3522285783205703 11.2651658562308405 0.0000000000000000 18.0000000000000000 108
7.1819095181313433  -3.3540443456772056 11.2766583394994804 0.0000000000000000 17.9999999999999964 109
7.2473757579198033  -3.3558153114370981 11.2878813354650891 0.0000000000000000 18.0000000000000036 110
7.3128447635771154  -3.3575430871593630 11.2988441189855742 0.0000000000000000 18.0000000000000000 111
7.3783164394455047  -3.3592292141964628 11.3095555808314572 0.0000000000000000 17.9999999999999964 112
7.4437906929611311  -3.3608751672324995 11.3200242459318670 0.0000000000000000 18.0000000000000000 113
7.5092674345436121  -3.3624823576225533 11.3302582906659897 0.0000000000000000 17.9999999999999929 114
7.5747465774892326  -3.3640521365451539 11.3402655592526056 0.0000000000000000 18.0000000000000000 115
7.6402280378677752  -3.3655857979791755 11.3500535792874082 0.0000000000000000 18.0000000000000000 116
7.7057117344229393  -3.3670845815157717 11.3596295764751627 0.0000000000000000 18.0000000000000000 117
7.7711975884762579  -3.3685496750152559 11.3690004886010687 0.0000000000000000 18.0000000000000000 118
7.8366855238344497  -3.3699822171182143 11.3781729787831765 0.0000000000000000 17.9999999999999964 119
7.9021754667001378  -3.3713832996195667 11.3871534480454830 0.0000000000000000 18.0000000000000000 120
7.9676673455858165  -3.3727539697137208 11.3959480472490213 0.0000000000000000 18.0000000000000000 121
8.0331610912310332  -3.3740952321184539 11.4045626884161386 0.0000000000000000 18.0000000000000000 122
8.0986566365226285  -3.3754080510846962 11.4130030554812389 0.0000000000000000 18.0000000000000000 123
8.1641539164180106  -3.3766933522989016 11.4212746144993158 0.0000000000000000 18.0000000000000000 124
8.2296528678712964  -3.3779520246843262 11.4293826233419029 0.0000000000000000 18.0000000000000000 125
8.2951534297623102  -3.3791849221070818 11.4373321409082678 0.0000000000000000 18.0000000000000000 126
8.3606555428282672  -3.3803928649925119 11.4451280358782519 0.0000000000000000 18.0000000000000000 127
8.4261591495981030  -3.3815766418570705 11.4527749950315023 0.0000000000000000 18.0000000000000000 128
8.4916641943293261  -3.3827370107605761 11.4602775311565672 0.0000000000000000 18.0000000000000000 129
8.5571706229473126  -3.3838747006833905 11.4676399905719038 0.0000000000000000 18.0000000000000000 130
8.6226783829869724  -3.3849904128328205 11.4748665602796152 0.0000000000000000 18.0000000000000000 131
8.6881874235366592  -3.3860848218827648 11.4819612747716224 0.0000000000000000 18.0000000000000000 132
8.7536976951842664  -3.3871585771503687 11.4889280225067374 0.0000000000000000 17.9999999999999964 133
8.8192091499654346  -3.3882123037132397 11.4957705520761628 0.0000000000000000 18.0000000000000000 134
8.8847217413137543  -3.3892466034705562 11.5024924780738758 0.0000000000000000 18.0000000000000000 135
8.9502354240129147  -3.3902620561511929 11.5090972866875365 0.0000000000000000 18.0000000000000000 136
9.0157501541507195  -3.3912592202718015 11.5155883410244897 0.0000000000000000 18.0000000000000000 137
9.0812658890748690  -3.3922386340476187 11.5219688861868477 0.0000000000000000 18.0000000000000000 138
9.1467825873504651  -3.3932008162585863 11.5282420541086346 0.0000000000000000 18.0000000000000000 139
9.2123002087191779  -3.3941462670732325 11.5344108681674040 0.0000000000000000 18.0000000000000000 140
9.2778187140599577  -3.3950754688326135 11.5404782475819587 0.0000000000000000 17.9999999999999964 141
9.3433380653512810  -3.3959888867964780 11.5464470116072135 0.0000000000000000 18.0000000000000000 142
9.4088582256348321  -3.3968869698536737 11.5523198835365406 0.0000000000000000 18.0000000000000000 143
9.4743791589806055  -3.3977701511987335 11.5580994945215014 0.0000000000000000 18.0000000000000000 144
9.5399008304532948  -3.3986388489764261 11.5637883872181639 0.0000000000000000 17.9999999999999964 145
9.6054232060799993  -3.3994934668959820 11.5693890192688436 0.0000000000000000 18.0000000000000000 146
9.6709462528191334  -3.4003343948165714 11.5749037666274717 0.0000000000000000 18.0000000000000000 147
9.7364699385305240  -3.4011620093055779 11.5803349267365245 0.0000000000000000 18.0000000000000000 148
9.8019942319466118  -3.4019766741710455 11.5856847215628171 0.0000000000000000 18.0000000000000000 149
9.8675191026447511  -3.4027787409696790 11.5909553004992532 0.0000000000000000 18.0000000000000000 150
9.9330445210205358  -3.4035685494916219 11.5961487431390768 0.0000000000000000 18.0000000000000036 151
9.9985704582621118  -3.4043464282232359 11.6012670619289402 0.0000000000000000 18.0000000000000000 152
10.0640968863254425  -3.4051126947889863 11.6063122047067253 0.0000000000000000 18.0000000000000000 153
10.1296237779104743  -3.4058676563734935 11.6112860571296572 0.0000000000000000 17.9999999999999964 154
10.1951511064381926  -3.4066116101247736 11.6161904449981375 0.0000000000000000 18.0000000000000036 155
10.2606788460284903  -3.4073448435395752 11.6210271364801834 0.0000000000000000 18.0000000000000000 156
10.3262069714788502  -3.4080676348317489 11.6257978442413865 0.0000000000000000 18.0000000000000036 157
10.3917354582438026  -3.4087802532844558 11.6305042274847796 0.0000000000000000 18.0000000000000000 158
10.4572642824150925  -3.4094829595870446 11.6351478939049535 0.0000000000000000 18.0000000000000000 159
10.5227934207025893  -3.4101760061573230 11.6397304015604561 0.0000000000000000 18.0000000000000036 160
10.5883228504158371  -3.4108596374499527 11.6442532606683109 0.0000000000000000 18.0000000000000036 161
10.6538525494462810  -3.4115340902516471 11.6487179353243135 0.0000000000000000 18.0000000000000000 162
10.7193824962501036  -3.4121995939637904 11.6531258451525375 0.0000000000000000 18.0000000000000000 163
10.7849126698316660  -3.4128563708730959 11.6574783668873181 0.0000000000000000 18.0000000000000000 164
10.8504430497275131  -3.4135046364108828 11.6617768358908727 0.0000000000000000 18.0000000000000036 165
10.9159736159909411  -3.4141445994014852 11.6660225476094492 0.0000000000000000 18.0000000000000000 166
10.9815043491770847  -3.4147764623003436 11.6702167589708488 0.0000000000000000 18.0000000000000000 167
11.0470352303285129  -3.4154004214222251 11.6743606897259209 0.0000000000000000 18.0000000000000000 168
11.1125662409613266  -3.4160166671600702 11.6784555237366696 0.0000000000000000 18.0000000000000036 169
11.1780973630516982  -3.4166253841948708 11.6825024102131962 0.0000000000000000 17.9999999999999964 170
11.2436285790228823  -3.4172267516970245 11.6865024649019738 0.0000000000000000 18.0000000000000000 171
11.3091598717326516  -3.4178209435195206 11.6904567712274030 0.0000000000000000 18.0000000000000000 172
11.3746912244611504  -3.4184081283833683 11.6943663813888872 0.0000000000000000 17.9999999999999964 173
11.4402226208991316  -3.4189884700555999 11.6982323174152771 0.0000000000000000 18.0000000000000036 174
11.5057540451366194  -3.4195621275201775 11.7020555721785762 0.0000000000000000 17.9999999999999964 175
11.5712854816518806  -3.4201292551421538 11.7058371103687264 0.0000000000000000 18.0000000000000000 176
11.6368169153008036  -3.4206900028253440 11.7095778694310688 0.0000000000000000 18.0000000000000000 177
11.7023483313065988  -3.4212445161638465 11.7132787604681852 0.0000000000000000 18.0000000000000000 178
11.7678797152498227  -3.4217929365876403 11.7169406691075721 0.0000000000000000 18.0000000000000000 179
11.8334110530587235  -3.4223354015025511 11.7205644563366427 0.0000000000000000 18.0000000000000000 180
11.8989423309999012  -3.4228720444248211 11.7241509593064386 0.0000000000000000 18.0000000000000000 181
11.9644735356692404  -3.4234029951105107 11.7277009921053690 0.0000000000000000 18.0000000000000000 182
12.0300046539831449  -3.4239283796799742 11.7312153465042179 0.0000000000000000 18.0000000000000000 183
12.0955356731700387  -3.4244483207376035 11.7346947926736718 0.0000000000000000 17.9999999999999964 184
12.1610665807621245  -3.4249629374870518 11.7381400798754498 0.0000000000000000 17.9999999999999964 185
12.2265973645873949  -3.4254723458421292 11.7415519371281771 0.0000000000000000 17.9999999999999929 186
12.2921280127618981  -3.4259766585335596 11.7449310738490045 0.0000000000000000 17.9999999999999964 187
12.3576585136822317  -3.4264759852117548 11.7482781804720045 0.0000000000000000 18.0000000000000000 188
12.4231888560182586  -3.4269704325457959 11.7515939290442528 0.0000000000000000 18.0000000000000000 189
12.4887190287060506  -3.4274601043187709 11.7548789738005599 0.0000000000000000 18.0000000000000000 190
12.5542490209410307  -3.4279451015196103 11.7581339517176229 0.0000000000000000 18.0000000000000000 191
12.6197788221713392  -3.4284255224315849 11.7613594830485297 0.0000000000000000 18.0000000000000000 192
12.6853084220913743  -3.4289014627175893 11.7645561718383274 0.0000000000000000 18.0000000000000000 193
12.7508378106355380  -3.4293730155023434 11.7677246064214245 0.0000000000000000 18.0000000000000000 194
