 # inv_tmp, energy, phys_var, phys_doublon, phys_num, step_i
0.0737295481655865  -0.1261665066531209 1.6949691974666383 0.0000000000000000 18.0000000000000000 1
0.1467912380400427  -0.2495828321091813 1.7270588820159851 0.0000000000000000 18.0000000000000000 2
0.2192077056434386  -0.3713005771774776 1.7832631700475914 0.0000000000000000 18.0000000000000071 3
0.2910045514920656  -0.4909789519842775 1.8624155083238956 0.0000000000000000 18.0000000000000000 4
0.3622097426856699  -0.6083131443488681 1.9631271882966623 0.0000000000000000 18.0000000000000071 5
0.4328530285904628  -0.7230357820913244 2.0838314577026420 0.0000000000000000 18.0000000000000000 6
0.5029653876106226  -0.8349173618250789 2.2228281773897560 0.0000000000000000 18.0000000000000000 7
0.5725785180741457  -0.9437657804830338 2.3783272383610004 0.0000000000000000 18.0000000000000000 8
0.6417243819226763  -1.0494251224646232 2.5484892974634650 0.0000000000000000 18.0000000000000000 9
0.7104348059858293  -1.1517738594566118 2.7314627601632870 0.0000000000000000 18.0000000000000000 10
0.7787411423184523  -1.2507226143234833 2.9254163011908227 0.0000000000000000 18.0000000000000000 11
0.8466739864614441  -1.3462116278127936 3.1285665433159791 0.0000000000000000 18.0000000000000000 12
0.9142629505503339  -1.4382080498279932 3.3392007952515108 0.0000000000000000 18.0000000000000000 13
0.9815364868830089  -1.5267031579411567 3.5556949741726767 0.0000000000000000 17.9999999999999964 14
1.0485217567791569  -1.6117095864122355 3.7765270057566611 0.0000000000000000 18.0000000000000000 15
1.1152445392163839  -1.6932586305103079 4.0002861089169119 0.0000000000000000 18.0000000000000000 16
1.1817291737092623  -1.7713976742059563 4.2256784404012970 0.0000000000000000 18.0000000000000036 17
1.2479985321144342  -1.8461877747617454 4.4515296044029125 0.0000000000000000 18.0000000000000000 18
1.3140740144176648  -1.9177014255470224 4.6767845328040796 0.0000000000000000 17.9999999999999964 19
1.3799755640229530  -1.9860205085013261 4.9005052206006106 0.0000000000000000 18.0000000000000036 20
1.4457216985699248  -2.0512344398963136 5.1218667653990959 0.0000000000000000 18.0000000000000000 21
1.5113295528175570  -2.1134385071549966 5.3401521154050080 0.0000000000000000 18.0000000000000000 22
1.5768149306249877  -2.1727323902034552 5.5547458815567516 0.0000000000000000 18.0000000000000000 23
1.6421923635179827  -2.2292188578761305 5.7651275198047571 0.0000000000000000 18.0000000000000000 24
1.7074751737437812  -2.2830026280094282 5.9708641413919725 0.0000000000000000 18.0000000000000000 25
1.7726755400840053  -2.3341893788051999 6.1716031639561315 0.0000000000000000 18.0000000000000000 26
1.8378045650149739  -2.3828848986236046 6.3670649752991588 0.0000000000000000 17.9999999999999964 27
1.9028723420795004  -2.4291943614052305 6.5570357452257637 0.0000000000000000 18.0000000000000000 28
1.9678880225677615  -2.4732217152883500 6.7413604890644443 0.0000000000000000 17.9999999999999964 29
2.0328598808014591  -2.5150691725712466 6.9199364592327628 0.0000000000000000 18.0000000000000000 30
2.0977953774798523  -2.5548367898887046 7.0927069182228983 0.0000000000000000 18.0000000000000000 31
2.1627012206827212  -2.5926221282644324 7.2596553273011324 0.0000000000000000 18.0000000000000000 32
2.2275834242380270  -2.6285199835225637 7.4207999696289804 0.0000000000000000 18.0000000000000000 33
2.2924473632546305  -2.6626221783601309 7.5761890140058501 0.0000000000000000 18.0000000000000036 34
2.3572978266961120  -2.6950174081774865 7.7258960155941505 0.0000000000000000 18.0000000000000000 35
2.4221390669332101  -2.7257911335218075 7.8700158424324576 0.0000000000000000 18.0000000000000000 36
2.4869748462620342  -2.7550255127120611 8.0086610109156879 0.0000000000000000 17.9999999999999964 37
2.5518084804149082  -2.7827993688785257 8.1419584094043387 0.0000000000000000 18.0000000000000000 38
2.6166428791220895  -2.8091881862647554 8.2700463864336982 0.0000000000000000 17.9999999999999964 39
2.6814805838071023  -2.8342641312054191 8.3930721783806330 0.0000000000000000 18.0000000000000000 40
2.7463238025170251  -2.8580960937113176 8.5111896506950693 0.0000000000000000 18.0000000000000000 41
2.8111744422029061  -2.8807497460653897 8.6245573267317841 0.0000000000000000 18.0000000000000000 42
2.8760341384751604  -2.9022876152632140 8.7333366786693549 0.0000000000000000 18.0000000000000036 43
2.9409042829651657  -2.9227691665211388 8.8376906558469273 0.0000000000000000 17.9999999999999964 44
3.0057860484277770  -2.9422508954274700 8.9377824269764066 0.0000000000000000 17.9999999999999964 45
3.0706804117207254  -2.9607864266296948 9.0337743140093991 0.0000000000000000 18.0000000000000000 46
3.1355881747961436  -2.9784266172362694 9.1258268968821419 0.0000000000000000 18.0000000000000000 47
3.2005099838373066  -2.9952196633672550 9.2140982698699059 0.0000000000000000 18.0000000000000000 48
3.2654463466702528  -3.0112112085166394 9.2987434318099371 0.0000000000000000 18.0000000000000000 49
3.3303976485755955  -3.0264444525925613 9.3799137939632544 0.0000000000000000 18.0000000000000000 50
3.3953641666208179  -3.0409602606821071 9.4577567907551678 0.0000000000000000 18.0000000000000000 51
3.4603460826277628  -3.0547972707467204 9.5324155800418708 0.0000000000000000 18.0000000000000036 52
3.5253434948841660  -3.0679919995946108 9.6040288208838849 0.0000000000000000 17.9999999999999964 53
3.5903564287019543  -3.0805789465994504 9.6727305180569640 0.0000000000000000 18.0000000000000000 54
3.6553848459189093  -3.0925906947419204 9.7386499236930035 0.0000000000000000 18.0000000000000000 55
3.7204286534340785  -3.1040580086437908 9.8019114875159907 0.0000000000000000 18.0000000000000000 56
3.7854877108612972  -3.1150099293446187 9.8626348481207984 0.0000000000000000 17.9999999999999964 57
3.8505618373792370  -3.1254738656402767 9.9209348586388089 0.0000000000000000 18.0000000000000000 58
3.9156508178506790  -3.1354756818614384 9.9769216409465091 0.0000000000000000 18.0000000000000000 59
3.9807544082782411  -3.1450397820202367 10.0307006633063818 0.0000000000000000 18.0000000000000036 60
4.0458723406585211  -3.1541891902953214 10.0823728369878740 0.0000000000000000 18.0000000000000000 61
4.1110043272917078  -3.1629456278607426 10.1320346280054761 0.0000000000000000 18.0000000000000000 62
4.1761500645989935  -3.1713295860930426 10.1797781806361947 0.0000000000000000 18.0000000000000000 63
4.2413092364957707  -3.1793603962146815 10.2256914498452200 0.0000000000000000 18.0000000000000000 64
4.3064815173644613  -3.1870562954509478 10.2698583401614538 0.0000000000000000 18.0000000000000000 65
4.3716665746670422  -3.1944344897925929 10.3123588489088593 0.0000000000000000 18.0000000000000000 66
4.4368640712337619  -3.2015112134680548 10.3532692120200380 0.0000000000000000 18.0000000000000000 67
4.5020736672612447  -3.2083017852378131 10.3926620509391334 0.0000000000000000 18.0000000000000036 68
4.5672950220501871  -3.2148206616296009 10.4306065193667834 0.0000000000000000 18.0000000000000000 69
4.6325277955100219  -3.2210814872372699 10.4671684488135011 0.0000000000000000 18.0000000000000036 70
4.6977716494553743  -3.2270971422083630 10.5024104921136310 0.0000000000000000 18.0000000000000000 71
4.7630262487167654  -3.2328797870462882 10.5363922642127896 0.0000000000000000 18.0000000000000036 72
4.8282912620858900  -3.2384409048525233 10.5691704796801407 0.0000000000000000 18.0000000000000000 73
4.8935663631137860  -3.2437913411329062 10.6007990865162771 0.0000000000000000 18.0000000000000000 74
4.9588512307784525  -3.2489413412897719 10.6313293959292032 0.0000000000000000 18.0000000000000000 75
5.0241455500367946  -3.2539005859189007 10.6608102078380753 0.0000000000000000 18.0000000000000000 76
5.0894490122743310  -3.2586782240267986 10.6892879319379936 0.0000000000000000 18.0000000000000000 77
5.1547613156646968  -3.2632829042801355 10.7168067042215327 0.0000000000000000 18.0000000000000000 78
5.2200821654497638  -3.2677228043951110 10.7434084989049214 0.0000000000000000 18.0000000000000000 79
5.2854112741500927  -3.2720056587703081 10.7691332357502887 0.0000000000000000 18.0000000000000000 80
5.3507483617144240  -3.2761387844622663 10.7940188828115602 0.0000000000000000 18.0000000000000036 81
5.4160931556159513  -3.2801291055986139 10.8181015546609736 0.0000000000000000 17.9999999999999964 82
5.4814453909023761  -3.2839831763192033 10.8414156061772218 0.0000000000000000 18.0000000000000000 83
5.5468048102059271  -3.2877072023313110 10.8639937219951186 0.0000000000000000 18.0000000000000000 84
5.6121711637188758  -3.2913070611606909 10.8858670017319028 0.0000000000000000 18.0000000000000000 85
5.6775442091395005  -3.2947883211760431 10.9070650411165211 0.0000000000000000 18.0000000000000000 86
5.7429237115928409  -3.2981562594603653 10.9276160091567753 0.0000000000000000 18.0000000000000000 87
5.8083094435301783  -3.3014158785986800 10.9475467214851072 0.0000000000000000 18.0000000000000000 88
5.8737011846106348  -3.3045719224478307 10.9668827100276438 0.0000000000000000 17.9999999999999929 89
5.9390987215679898  -3.3076288909502987 10.9856482891429952 0.0000000000000000 17.9999999999999964 90
6.0045018480653702  -3.3105910540505157 11.0038666183779466 0.0000000000000000 18.0000000000000000 91
6.0699103645401955  -3.3134624647687456 11.0215597619864099 0.0000000000000000 17.9999999999999964 92
6.1353240780414708  -3.3162469714843912 11.0387487453563473 0.0000000000000000 18.0000000000000000 93
6.2007428020612405  -3.3189482294774981 11.0554536084867152 0.0000000000000000 17.9999999999999929 94
6.2661663563618175  -3.3215697117743619 11.0716934566535361 0.0000000000000000 18.0000000000000000 95
6.3315945668001614  -3.3241147193403200 11.0874865084002927 0.0000000000000000 18.0000000000000000 96
6.3970272651506397  -3.3265863906602573 11.1028501409840068 0.0000000000000000 18.0000000000000000 97
6.4624642889271895  -3.3289877107448191 11.1178009334037995 0.0000000000000000 18.0000000000000036 98
6.5279054812058188  -3.3313215195980352 11.1323547071343310 0.0000000000000000 18.0000000000000036 99
6.5933506904481778  -3.3335905201798335 11.1465265646818246 0.0000000000000000 18.0000000000000000 100
6.6587997703269020  -3.3357972858948353 11.1603309260755257 0.0000000000000000 18.0000000000000000 101
6.7242525795532488  -3.3379442676368845 11.1737815634027911 0.0000000000000000 18.0000000000000000 102
6.7897089817075047  -3.3400338004169177 11.1868916334912853 0.0000000000000000 18.0000000000000000 103
6.8551688450725683  -3.3420681096000235 11.1996737088368583 0.0000000000000000 18.0000000000000036 104
6.9206320424710013  -3.3440493167759602 11.2121398068713596 0.0000000000000000 17.9999999999999964 105
6.9860984511058088  -3.3459794452858236 11.2243014176599107 0.0000000000000000 18.0000000000000000 106
7.0515679524051640  -3.3478604254261510 11.2361695301128854 0.0000000000000000 18.0000000000000036 107
7.1170404318712164  -3.3496940993503888 11.2477546567935356 0.0000000000000000 18.0000000000000000 108
7.1825157789330962  -3.3514822256864027 11.2590668573981834 0.0000000000000000 18.0000000000000000 109
7.2479938868042035  -3.3532264838874939 11.2701157609817599 0.0000000000000000 18.0000000000000000 110
7.3134746523438094  -3.3549284783333242 11.2809105869979156 0.0000000000000000 18.0000000000000036 111
7.3789579759230026  -3.3565897421960589 11.2914601652189948 0.0000000000000000 17.9999999999999964 112
7.4444437612949628  -3.3582117410861114 11.3017729545979417 0.0000000000000000 18.0000000000000000 113
7.5099319154695481  -3.3597958764909253 11.3118570611306080 0.0000000000000000 17.9999999999999964 114
7.5754223485921397  -3.3613434890194007 11.3217202547739824 0.0000000000000000 18.0000000000000000 115
7.6409149738266926  -3.3628558614637600 11.3313699854726231 0.0000000000000000 18.0000000000000000 116
7.7064097072429343  -3.3643342216899139 11.3408133983428741 0.0000000000000000 18.0000000000000036 117
7.7719064677076153  -3.3657797453666545 11.3500573480614833 0.0000000000000000 18.0000000000000000 118
7.8374051767797246  -3.3671935585434065 11.3591084125028789 0.0000000000000000 18.0000000000000000 119
7.9029057586096005  -3.3685767400855964 11.3679729056666723 0.0000000000000000 18.0000000000000000 120
7.9684081398418014  -3.3699303239761629 11.3766568899347646 0.0000000000000000 18.0000000000000000 121
8.0339122495216699  -3.3712553014911846 11.3851661876951251 0.0000000000000000 18.0000000000000000 122
8.0994180190054568  -3.3725526232570968 11.3935063923672750 0.0000000000000000 18.0000000000000000 123
8.1649253818739087  -3.3738232011965104 11.4016828788624558 0.0000000000000000 18.0000000000000000 124
8.2304342738492160  -3.3750679103691863 11.4097008135096551 0.0000000000000000 17.9999999999999964 125
8.2959446327151980  -3.3762875907143499 11.4175651634768798 0.0000000000000000 18.0000000000000000 126
8.3614563982406427  -3.3774830487000829 11.4252807057152896 0.0000000000000000 17.9999999999999964 127
8.4269695121056465  -3.3786550588852498 11.4328520354524414 0.0000000000000000 18.0000000000000000 128
8.4924839178309028  -3.3798043653989924 11.4402835742591336 0.0000000000000000 18.0000000000000071 129
8.5579995607097867  -3.3809316833425997 11.4475795777131850 0.0000000000000000 18.0000000000000000 130
8.6235163877431660  -3.3820377001181989 11.4547441426819940 0.0000000000000000 17.9999999999999964 131
8.6890343475768184  -3.3831230766884701 11.4617812142445246 0.0000000000000000 18.0000000000000000 132
8.7545533904413571  -3.3841884487713161 11.4686945922722163 0.0000000000000000 18.0000000000000000 133
8.8200734680945647  -3.3852344279732063 11.4754879376871521 0.0000000000000000 18.0000000000000036 134
8.8855945337660742  -3.3862616028646380 11.4821647784148482 0.0000000000000000 17.9999999999999964 135
8.9511165421042449  -3.3872705400010044 11.4887285150479563 0.0000000000000000 17.9999999999999929 136
9.0166394491251953  -3.3882617848919079 11.4951824262362834 0.0000000000000000 17.9999999999999964 137
9.0821632121638878  -3.3892358629218116 11.5015296738176946 0.0000000000000000 18.0000000000000000 138
9.1476877898271862  -3.3901932802247332 11.5077733077035891 0.0000000000000000 18.0000000000000000 139
9.2132131419487884  -3.3911345245155275 11.5139162705319116 0.0000000000000000 18.0000000000000000 140
9.2787392295459892  -3.3920600658801274 11.5199614020998347 0.0000000000000000 18.0000000000000036 141
9.3442660147781673  -3.3929703575270223 11.5259114435877308 0.0000000000000000 17.9999999999999964 142
9.4097934609069380  -3.3938658365020733 11.5317690415852567 0.0000000000000000 17.9999999999999964 143
9.4753215322579063  -3.3947469243686470 11.5375367519297711 0.0000000000000000 18.0000000000000000 144
9.5408501941839372  -3.3956140278549576 11.5432170433668979 0.0000000000000000 18.0000000000000000 145
9.6063794130299041  -3.3964675394703789 11.5488123010422790 0.0000000000000000 18.0000000000000000 146
9.6719091560988204  -3.3973078380923663 11.5543248298331953 0.0000000000000000 18.0000000000000000 147
9.7374393916193291  -3.3981352895255785 11.5597568575282494 0.0000000000000000 18.0000000000000000 148
9.8029700887144688  -3.3989502470346524 11.5651105378627879 0.0000000000000000 18.0000000000000000 149
9.8685012173716729  -3.3997530518520334 11.5703879534173879 0.0000000000000000 18.0000000000000000 150
9.9340327484139461  -3.4005440336621513 11.5755911183862494 0.0000000000000000 18.0000000000000000 151
9.9995646534721701  -3.4013235110631976 11.5807219812220801 0.0000000000000000 18.0000000000000000 152
10.0650969049584891  -3.4020917920076412 11.5857824271635756 0.0000000000000000 18.0000000000000036 153
10.1306294760407276  -3.4028491742226046 11.5907742806513028 0.0000000000000000 18.0000000000000000 154
10.1961623406177964  -3.4035959456111167 11.5956993076376165 0.0000000000000000 18.0000000000000071 155
10.2616954732960579  -3.4043323846352216 11.6005592177956274 0.0000000000000000 18.0000000000000000 156
10.3272288493665787  -3.4050587606818841 11.6053556666323736 0.0000000000000000 17.9999999999999964 157
10.3927624447832727  -3.4057753344125237 11.6100902575106719 0.0000000000000000 18.0000000000000000 158
10.4582962361418552  -3.4064823580970427 11.6147645435841849 0.0000000000000000 18.0000000000000036 159
10.5238302006596154  -3.4071800759330912 11.6193800296498839 0.0000000000000000 18.0000000000000000 160
10.5893643161559350  -3.4078687243513262 11.6239381739218057 0.0000000000000000 18.0000000000000000 161
10.6548985610335407  -3.4085485323073348 11.6284403897299082 0.0000000000000000 18.0000000000000000 162
10.7204329142604653  -3.4092197215609041 11.6328880471476097 0.0000000000000000 18.0000000000000000 163
10.7859673553526711  -3.4098825069432364 11.6372824745512986 0.0000000000000000 18.0000000000000071 164
10.8515018643573136  -3.4105370966127015 11.6416249601150952 0.0000000000000000 18.0000000000000000 165
10.9170364218366309  -3.4111836922996970 11.6459167532438812 0.0000000000000000 17.9999999999999964 166
10.9825710088524140  -3.4118224895411102 11.6501590659474132 0.0000000000000000 18.0000000000000000 167
11.0481056069510384  -3.4124536779049128 11.6543530741583012 0.0000000000000000 18.0000000000000000 168
11.1136401981490600  -3.4130774412053366 11.6584999189964638 0.0000000000000000 17.9999999999999964 169
11.1791747649192992  -3.4136939577090866 11.6626007079824632 0.0000000000000000 18.0000000000000000 170
11.2447092901774433  -3.4143034003330071 11.6666565162020444 0.0000000000000000 18.0000000000000000 171
11.3102437572691255  -3.4149059368336112 11.6706683874241577 0.0000000000000000 18.0000000000000036 172
11.3757781499574460  -3.4155017299888444 11.6746373351745234 0.0000000000000000 18.0000000000000000 173
11.4413124524109566  -3.4160909377724495 11.6785643437667268 0.0000000000000000 17.9999999999999964 174
11.5068466491920471  -3.4166737135212650 11.6824503692927770 0.0000000000000000 18.0000000000000000 175
11.5723807252457433  -3.4172502060957912 11.6862963405748985 0.0000000000000000 18.0000000000000000 176
11.6379146658888892  -3.4178205600343250 11.6901031600802856 0.0000000000000000 17.9999999999999964 177
11.7034484567997108  -3.4183849157009631 11.6938717048004968 0.0000000000000000 18.0000000000000000 178
11.7689820840077299  -3.4189434094277331 11.6976028270969206 0.0000000000000000 18.0000000000000036 179
11.8345155338840211  -3.4194961736511429 11.7012973555139315 0.0000000000000000 18.0000000000000036 180
11.9000487931318002  -3.4200433370433698 11.7049560955610268 0.0000000000000000 17.9999999999999964 181
11.9655818487773260  -3.4205850246383518 11.7085798304653697 0.0000000000000000 18.0000000000000000 182
12.0311146881611180  -3.4211213579529822 11.7121693218959173 0.0000000000000000 18.0000000000000000 183
12.0966472989294456  -3.4216524551036556 11.7157253106604493 0.0000000000000000 18.0000000000000000 184
12.1621796690261270  -3.4221784309183239 11.7192485173765419 0.0000000000000000 18.0000000000000000 185
12.2277117866845622  -3.4226993970443078 11.7227396431177038 0.0000000000000000 18.0000000000000000 186
12.2932436404200605  -3.4232154620520019 11.7261993700356051 0.0000000000000000 18.0000000000000000 187
12.3587752190223910  -3.4237267315346886 11.7296283619595005 0.0000000000000000 18.0000000000000000 188
12.4243065115485951  -3.4242333082045926 11.7330272649737033 0.0000000000000000 18.0000000000000000 189
12.4898375073160111  -3.4247352919853684 11.7363967079741123 0.0000000000000000 18.0000000000000000 190
12.5553681958955288  -3.4252327801011422 11.7397373032045707 0.0000000000000000 18.0000000000000000 191
12.6208985671050655  -3.4257258671622859 11.7430496467739758 0.0000000000000000 18.0000000000000000 192
12.6864286110032296  -3.4262146452480220 11.7463343191548013 0.0000000000000000 18.0000000000000000 193
12.7519583178832061  -3.4266992039860309 11.7495918856639321 0.0000000000000000 18.0000000000000000 194
