 # inv_tmp, energy, phys_var, phys_doublon, phys_num, step_i
0.0737405300641311  -0.1221267091601987 1.6871604221922265 0.0000000000000000 18.0000000000000000 1
0.1468156382232829  -0.2450540583193503 1.7176683431974473 0.0000000000000000 18.0000000000000000 2
0.2192480595263371  -0.3662627298156362 1.7721097930158569 0.0000000000000000 18.0000000000000000 3
0.2910634466516283  -0.4854162967950435 1.8493200969459065 0.0000000000000000 17.9999999999999964 4
0.3622897728741878  -0.6022144391933875 1.9479177118663089 0.0000000000000000 18.0000000000000000 5
0.4329567488480818  -0.7163943787157012 2.0663481017960583 0.0000000000000000 18.0000000000000000 6
0.5030952706716042  -0.8277312790294760 2.2029279900343841 0.0000000000000000 18.0000000000000000 7
0.5727369123433620  -0.9360377429416060 2.3558882294053394 0.0000000000000000 18.0000000000000000 8
0.6419134714445628  -1.0411625565246008 2.5234138775290536 0.0000000000000000 17.9999999999999964 9
0.7106565729896201  -1.1429888361732226 2.7036804353423847 0.0000000000000000 18.0000000000000000 10
0.7789973330583496  -1.2414317307452520 2.8948855701836735 0.0000000000000000 18.0000000000000000 11
0.8469660811467379  -1.3364358198447954 3.0952759743497298 0.0000000000000000 18.0000000000000000 12
0.9145921381606202  -1.4279723334270464 3.3031692900567116 0.0000000000000000 18.0000000000000000 13
0.9819036455838167  -1.5160362994190337 3.5169712544860188 0.0000000000000000 18.0000000000000000 14
1.0489274405016837  -1.6006437067291541 3.7351883831470323 0.0000000000000000 18.0000000000000000 15
1.1156889707584827  -1.6818287521882751 3.9564366201197814 0.0000000000000000 18.0000000000000000 16
1.1822122444749787  -1.7596412225449569 4.1794464469116139 0.0000000000000000 18.0000000000000000 17
1.2485198083591857  -1.8341440471909460 4.4030649662451999 0.0000000000000000 17.9999999999999929 18
1.3146327496268588  -1.9054110441001866 4.6262554719678004 0.0000000000000000 17.9999999999999964 19
1.3805707168409957  -1.9735248705893835 4.8480949897766727 0.0000000000000000 18.0000000000000000 20
1.4463519555268534  -2.0385751818622402 5.0677702328953025 0.0000000000000000 18.0000000000000036 21
1.5119933549793685  -2.1006569936945185 5.2845723682331744 0.0000000000000000 17.9999999999999964 22
1.5775105032236005  -2.1598692408070956 5.4978909366199602 0.0000000000000000 18.0000000000000000 23
1.6429177475958936  -2.2163135191881147 5.7072072188890282 0.0000000000000000 18.0000000000000036 24
1.7082282588718760  -2.2700929985904201 5.9120872902860828 0.0000000000000000 18.0000000000000036 25
1.7734540972713684  -2.3213114903887604 6.1121749604028270 0.0000000000000000 18.0000000000000000 26
1.8386062790185340  -2.3700726556996892 6.3071847554001286 0.0000000000000000 18.0000000000000000 27
1.9036948424301638  -2.4164793389433852 6.4968950639962602 0.0000000000000000 18.0000000000000036 28
1.9687289127499499  -2.4606330126907805 6.6811415385013717 0.0000000000000000 18.0000000000000000 29
2.0337167651471821  -2.5026333205537270 6.8598108167944671 0.0000000000000000 18.0000000000000000 30
2.0986658854602984  -2.5425777059322647 7.0328346101415020 0.0000000000000000 18.0000000000000000 31
2.1635830283948545  -2.5805611155496528 7.2001841846543613 0.0000000000000000 17.9999999999999964 32
2.2284742729872700  -2.6166757678234243 7.3618652504854065 0.0000000000000000 17.9999999999999964 33
2.2933450752249835  -2.6510109771984496 7.5179132620516720 0.0000000000000000 18.0000000000000000 34
2.3582003177748740  -2.6836530265799778 7.6683891242331406 0.0000000000000000 18.0000000000000000 35
2.4230443568184841  -2.7146850809358480 7.8133752931824807 0.0000000000000000 18.0000000000000000 36
2.4878810660279460  -2.7441871359813490 7.9529722557605842 0.0000000000000000 18.0000000000000000 37
2.5527138777428831  -2.7722359966168311 8.0872953683632183 0.0000000000000000 18.0000000000000000 38
2.6175458214280574  -2.7989052804605530 8.2164720337647417 0.0000000000000000 18.0000000000000000 39
2.6823795595056525  -2.8242654424132105 8.3406391933523558 0.0000000000000000 18.0000000000000000 40
2.7472174206660336  -2.8483838167129720 8.4599411115723804 0.0000000000000000 18.0000000000000036 41
2.8120614307676006  -2.8713246733983184 8.5745274294036058 0.0000000000000000 18.0000000000000000 42
2.8769133414405674  -2.8931492864977626 8.6845514640842314 0.0000000000000000 18.0000000000000000 43
2.9417746565118246  -2.9139160116176233 8.7901687330431209 0.0000000000000000 18.0000000000000000 44
3.0066466563687224  -2.9336803709078021 8.8915356809377073 0.0000000000000000 18.0000000000000000 45
3.0715304203791547  -2.9524951436565510 8.9888085898098886 0.0000000000000000 18.0000000000000036 46
3.1364268474837815  -2.9704104610034499 9.0821426535821157 0.0000000000000000 18.0000000000000000 47
3.2013366750739518  -2.9874739034695126 9.1716911993833854 0.0000000000000000 17.9999999999999929 48
3.2662604962659367  -3.0037306001881450 9.2576050394838170 0.0000000000000000 18.0000000000000000 49
3.3311987756786148  -3.0192233288836134 9.3400319388992497 0.0000000000000000 18.0000000000000000 50
3.3961518638179036  -3.0339926157875370 9.4191161849824852 0.0000000000000000 18.0000000000000000 51
3.4611200101670336  -3.0480768348107534 9.4949982465298568 0.0000000000000000 18.0000000000000000 52
3.5261033750773634  -3.0615123053998250 9.5678145110889048 0.0000000000000000 18.0000000000000000 53
3.5911020405498704  -3.0743333886059729 9.6376970902474497 0.0000000000000000 18.0000000000000071 54
3.6561160199927882  -3.0865725809808877 9.7047736837111920 0.0000000000000000 18.0000000000000000 55
3.7211452670361549  -3.0982606059898852 9.7691674939334110 0.0000000000000000 18.0000000000000000 56
3.7861896834793547  -3.1094265026993084 9.8309971839456125 0.0000000000000000 18.0000000000000000 57
3.8512491264431086  -3.1200977115531146 9.8903768718529612 0.0000000000000000 18.0000000000000000 58
3.9163234147927759  -3.1303001571037807 9.9474161562041274 0.0000000000000000 18.0000000000000000 59
3.9814123348954604  -3.1400583276062077 10.0022201671253512 0.0000000000000000 18.0000000000000000 60
4.0465156457690492  -3.1493953514205772 10.0548896387251521 0.0000000000000000 18.0000000000000000 61
4.1116330836772423  -3.1583330702019996 10.1055209988335868 0.0000000000000000 17.9999999999999964 62
4.1767643662206364  -3.1668921088817994 10.1542064726416932 0.0000000000000000 18.0000000000000036 63
4.2419091959701651  -3.1750919424679402 10.2010341972566465 0.0000000000000000 17.9999999999999964 64
4.3070672636856298  -3.1829509597109973 10.2460883445904472 0.0000000000000000 18.0000000000000036 65
4.3722382511586551  -3.1904865236974769 10.2894492503579507 0.0000000000000000 18.0000000000000000 66
4.4374218337162423  -3.1977150294449190 10.3311935472784420 0.0000000000000000 18.0000000000000000 67
4.5026176824180846  -3.2046519585830335 10.3713943008560818 0.0000000000000000 18.0000000000000000 68
4.5678254659780304  -3.2113119312128582 10.4101211463632239 0.0000000000000000 18.0000000000000000 69
4.6330448524374637  -3.2177087550416075 10.4474404258688658 0.0000000000000000 18.0000000000000000 70
4.6982755106159590  -3.2238554718949084 10.4834153243461099 0.0000000000000000 18.0000000000000000 71
4.7635171113623072  -3.2297644017106872 10.5181060040597565 0.0000000000000000 18.0000000000000071 72
4.8287693286269366  -3.2354471841203423 10.5515697365812091 0.0000000000000000 18.0000000000000000 73
4.8940318403748320  -3.2409148177231177 10.5838610319041351 0.0000000000000000 18.0000000000000000 74
4.9593043293562742  -3.2461776971590410 10.6150317642440726 0.0000000000000000 17.9999999999999964 75
5.0245864837511087  -3.2512456480845149 10.6451312941993628 0.0000000000000000 17.9999999999999964 76
5.0898779977007500  -3.2561279601527580 10.6742065870318115 0.0000000000000000 18.0000000000000000 77
5.1551785717407430  -3.2608334180989660 10.7023023268946282 0.0000000000000000 18.0000000000000000 78
5.2204879131454849  -3.2653703310273081 10.7294610268940112 0.0000000000000000 18.0000000000000000 79
5.2858057361955133  -3.2697465599938713 10.7557231349203946 0.0000000000000000 18.0000000000000000 80
5.3511317623767951  -3.2739695439764267 10.7811271352271838 0.0000000000000000 18.0000000000000000 81
5.4164657205204056  -3.2780463243184936 10.8057096457695554 0.0000000000000000 18.0000000000000000 82
5.4818073468902044  -3.2819835677316838 10.8295055113447560 0.0000000000000000 18.0000000000000071 83
5.5471563852252812  -3.2857875879367677 10.8525478925987962 0.0000000000000000 18.0000000000000000 84
5.6125125867432404  -3.2894643660203373 10.8748683509835722 0.0000000000000000 18.0000000000000000 85
5.6778757101097614  -3.2930195695803617 10.8964969297633978 0.0000000000000000 18.0000000000000000 86
5.7432455213792544  -3.2964585707304859 10.9174622311820002 0.0000000000000000 18.0000000000000000 87
5.8086217939109339  -3.2997864630293909 10.9377914899095963 0.0000000000000000 17.9999999999999964 88
5.8740043082641291  -3.3030080773982462 10.9575106428964748 0.0000000000000000 18.0000000000000071 89
5.9393928520762458  -3.3061279970859321 10.9766443957636657 0.0000000000000000 18.0000000000000000 90
6.0047872199263663  -3.3091505717386211 10.9952162858641262 0.0000000000000000 18.0000000000000036 91
6.0701872131871566  -3.3120799306271556 11.0132487421489191 0.0000000000000000 18.0000000000000036 92
6.1355926398674336  -3.3149199950827812 11.0307631419729439 0.0000000000000000 18.0000000000000000 93
6.2010033144474308  -3.3176744901889483 11.0477798649737160 0.0000000000000000 18.0000000000000000 94
6.2664190577085961  -3.3203469557741592 11.0643183441547812 0.0000000000000000 18.0000000000000000 95
6.3318396965594701  -3.3229407567483062 11.0803971143029525 0.0000000000000000 18.0000000000000000 96
6.3972650638590576  -3.3254590928224479 11.0960338578653399 0.0000000000000000 18.0000000000000000 97
6.4626949982388409  -3.3279050076496390 11.1112454484088516 0.0000000000000000 17.9999999999999964 98
6.5281293439245252  -3.3302813974221990 11.1260479917808688 0.0000000000000000 18.0000000000000000 99
6.5935679505583433  -3.3325910189587127 11.1404568650859730 0.0000000000000000 18.0000000000000000 100
6.6590106730227188  -3.3348364973120410 11.1544867535892909 0.0000000000000000 18.0000000000000036 101
6.7244573712659221  -3.3370203329277288 11.1681516856527949 0.0000000000000000 18.0000000000000000 102
6.7899079101302462  -3.3391449083804194 11.1814650658065631 0.0000000000000000 18.0000000000000000 103
6.8553621591831924  -3.3412124947142035 11.1944397060527248 0.0000000000000000 17.9999999999999964 104
6.9208199925519880  -3.3432252574112180 11.2070878554953772 0.0000000000000000 17.9999999999999964 105
6.9862812887617958  -3.3451852620113365 11.2194212283856878 0.0000000000000000 18.0000000000000036 106
7.0517459305778107  -3.3470944794043587 11.2314510306670705 0.0000000000000000 18.0000000000000000 107
7.1172138048514597  -3.3489547908148118 11.2431879851013754 0.0000000000000000 18.0000000000000000 108
7.1826848023708427  -3.3507679924981701 11.2546423550529227 0.0000000000000000 18.0000000000000000 109
7.2481588177155007  -3.3525358001661933 11.2658239670035538 0.0000000000000000 18.0000000000000000 110
7.3136357491155932  -3.3542598531579220 11.2767422318679849 0.0000000000000000 18.0000000000000036 111
7.3791154983155005  -3.3559417183718789 11.2874061651753017 0.0000000000000000 17.9999999999999964 112
7.4445979704418761  -3.3575828939740160 11.2978244061789468 0.0000000000000000 18.0000000000000000 113
7.5100830738761175  -3.3591848128950454 11.3080052359541803 0.0000000000000000 18.0000000000000000 114
7.5755707201312239  -3.3607488461299653 11.3179565945390657 0.0000000000000000 18.0000000000000000 115
7.6410608237329853  -3.3622763058517400 11.3276860971716857 0.0000000000000000 18.0000000000000000 116
7.7065533021054540  -3.3637684483503798 11.3372010496737943 0.0000000000000000 18.0000000000000000 117
7.7720480754605861  -3.3652264768079410 11.3465084630279875 0.0000000000000000 18.0000000000000000 118
7.8375450666920043  -3.3666515439193199 11.3556150671932272 0.0000000000000000 18.0000000000000000 119
7.9030442012727500  -3.3680447543680807 11.3645273242007967 0.0000000000000000 18.0000000000000000 120
7.9685454071569533  -3.3694071671659893 11.3732514405705842 0.0000000000000000 18.0000000000000000 121
8.0340486146852985  -3.3707397978643794 11.3817933790852877 0.0000000000000000 17.9999999999999964 122
8.0995537564941795  -3.3720436206449653 11.3901588699580270 0.0000000000000000 17.9999999999999964 123
8.1650607674284252  -3.3733195702972436 11.3983534214269007 0.0000000000000000 18.0000000000000036 124
8.2305695844575038  -3.3745685440891746 11.4063823298080020 0.0000000000000000 18.0000000000000000 125
8.2960801465950667  -3.3757914035374341 11.4142506890368267 0.0000000000000000 18.0000000000000000 126
8.3615923948217272  -3.3769889760831129 11.4219633997260779 0.0000000000000000 18.0000000000000036 127
8.4271062720109686  -3.3781620566783777 11.4295251777664326 0.0000000000000000 18.0000000000000000 128
8.4926217228580576  -3.3793114092893068 11.4369405624953142 0.0000000000000000 18.0000000000000036 129
8.5581386938118538  -3.3804377683197138 11.4442139244571663 0.0000000000000000 18.0000000000000000 130
8.6236571330094183  -3.3815418399605628 11.4513494727775509 0.0000000000000000 18.0000000000000000 131
8.6891769902132925  -3.3826243034692292 11.4583512621720001 0.0000000000000000 18.0000000000000000 132
8.7546982167513701  -3.3836858123826197 11.4652231996093796 0.0000000000000000 18.0000000000000071 133
8.8202207654592257  -3.3847269956679540 11.4719690506484575 0.0000000000000000 18.0000000000000000 134
8.8857445906248458  -3.3857484588147044 11.4785924454652353 0.0000000000000000 18.0000000000000000 135
8.9512696479356144  -3.3867507848710541 11.4850968845875894 0.0000000000000000 18.0000000000000000 136
9.0167958944275064  -3.3877345354279798 11.4914857443529552 0.0000000000000000 18.0000000000000000 137
9.0823232884363669  -3.3887002515538933 11.4977622821036807 0.0000000000000000 18.0000000000000000 138
9.1478517895511953  -3.3896484546826100 11.5039296411340999 0.0000000000000000 17.9999999999999964 139
9.2133813585693680  -3.3905796474572201 11.5099908554023287 0.0000000000000000 18.0000000000000000 140
9.2789119574537011  -3.3914943145323098 11.5159488540192374 0.0000000000000000 17.9999999999999964 141
9.3444435492912579  -3.3923929233368209 11.5218064655263177 0.0000000000000000 18.0000000000000036 142
9.4099760982538729  -3.3932759247996924 11.5275664219733152 0.0000000000000000 18.0000000000000036 143
9.4755095695602805  -3.3941437540403325 11.5332313628062746 0.0000000000000000 18.0000000000000000 144
9.5410439294397786  -3.3949968310258014 11.5388038385756122 0.0000000000000000 18.0000000000000000 145
9.6065791450973865  -3.3958355611965136 11.5442863144735703 0.0000000000000000 18.0000000000000000 146
9.6721151846804272  -3.3966603360621512 11.5496811737098746 0.0000000000000000 18.0000000000000000 147
9.7376520172464218  -3.3974715337693651 11.5549907207337306 0.0000000000000000 18.0000000000000000 148
9.8031896127323357  -3.3982695196427781 11.5602171843101225 0.0000000000000000 18.0000000000000000 149
9.8687279419249982  -3.3990546467006855 11.5653627204576690 0.0000000000000000 18.0000000000000000 150
9.9342669764327720  -3.3998272561467964 11.5704294152551128 0.0000000000000000 18.0000000000000036 151
9.9998066886583015  -3.4005876778392441 11.5754192875229247 0.0000000000000000 18.0000000000000000 152
10.0653470517723633  -3.4013362307380950 11.5803342913864089 0.0000000000000000 18.0000000000000071 153
10.1308880396887560  -3.4020732233323994 11.5851763187260222 0.0000000000000000 18.0000000000000000 154
10.1964296270401675  -3.4027989540479111 11.5899472015206495 0.0000000000000000 17.9999999999999964 155
10.2619717891550000  -3.4035137116364025 11.5946487140889758 0.0000000000000000 18.0000000000000000 156
10.3275145020350774  -3.4042177755475498 11.5992825752340032 0.0000000000000000 17.9999999999999964 157
10.3930577423342463  -3.4049114162842598 11.6038504502954432 0.0000000000000000 17.9999999999999964 158
10.4586014873377788  -3.4055948957422633 11.6083539531144098 0.0000000000000000 17.9999999999999929 159
10.5241457149425841  -3.4062684675347814 11.6127946479146686 0.0000000000000000 18.0000000000000036 160
10.5896904036381638  -3.4069323773029838 11.6171740511044153 0.0000000000000000 18.0000000000000000 161
10.6552355324882910  -3.4075868630129711 11.6214936330024674 0.0000000000000000 18.0000000000000036 162
10.7207810811133921  -3.4082321552399160 11.6257548194923004 0.0000000000000000 18.0000000000000000 163
10.7863270296735738  -3.4088684774400182 11.6299589936075094 0.0000000000000000 18.0000000000000000 164
10.8518733588523055  -3.4094960462108430 11.6341074970517830 0.0000000000000000 18.0000000000000000 165
10.9174200498406826  -3.4101150715406252 11.6382016316565338 0.0000000000000000 18.0000000000000000 166
10.9829670843222935  -3.4107257570470617 11.6422426607790666 0.0000000000000000 18.0000000000000000 167
11.0485144444586112  -3.4113283002060957 11.6462318106439984 0.0000000000000000 18.0000000000000000 168
11.1140621128749650  -3.4119228925711660 11.6501702716305946 0.0000000000000000 18.0000000000000000 169
11.1796100726469643  -3.4125097199833880 11.6540591995084704 0.0000000000000000 18.0000000000000000 170
11.2451583072874559  -3.4130889627730712 11.6578997166239944 0.0000000000000000 18.0000000000000000 171
11.3107068007339144  -3.4136607959529992 11.6616929130396727 0.0000000000000000 18.0000000000000036 172
11.3762555373363075  -3.4142253894038443 11.6654398476285888 0.0000000000000000 18.0000000000000000 173
11.4418045018453718  -3.4147829080520840 11.6691415491259356 0.0000000000000000 18.0000000000000071 174
11.5073536794013016  -3.4153335120407622 11.6727990171395266 0.0000000000000000 17.9999999999999964 175
11.5729030555228398  -3.4158773568934397 11.6764132231211786 0.0000000000000000 18.0000000000000000 176
11.6384526160967283  -3.4164145936716057 11.6799851113005726 0.0000000000000000 18.0000000000000000 177
11.7040023473675507  -3.4169453691258935 11.6835155995833588 0.0000000000000000 18.0000000000000000 178
11.7695522359278861  -3.4174698258413438 11.6870055804149811 0.0000000000000000 18.0000000000000036 179
11.8351022687088214  -3.4179881023770022 11.6904559216117683 0.0000000000000000 17.9999999999999964 180
11.9006524329707677  -3.4185003334000958 11.6938674671606595 0.0000000000000000 18.0000000000000000 181
11.9662027162945996  -3.4190066498150200 11.6972410379889453 0.0000000000000000 18.0000000000000000 182
12.0317531065730634  -3.4195071788873919 11.7005774327052787 0.0000000000000000 18.0000000000000000 183
12.0973035920024952  -3.4200020443633514 11.7038774283132074 0.0000000000000000 17.9999999999999929 184
12.1628541610747867  -3.4204913665843439 11.7071417808983611 0.0000000000000000 18.0000000000000000 185
12.2284048025696315  -3.4209752625975667 11.7103712262904089 0.0000000000000000 18.0000000000000000 186
12.2939555055470002  -3.4214538462622719 11.7135664807008730 0.0000000000000000 18.0000000000000000 187
12.3595062593398790  -3.4219272283520983 11.7167282413377478 0.0000000000000000 17.9999999999999964 188
12.4250570535472118  -3.4223955166536104 11.7198571869979347 0.0000000000000000 17.9999999999999964 189
12.4906078780270935  -3.4228588160611944 11.7229539786383761 0.0000000000000000 18.0000000000000000 190
12.5561587228901548  -3.4233172286684703 11.7260192599267832 0.0000000000000000 18.0000000000000000 191
12.6217095784931601  -3.4237708538563689 11.7290536577727682 0.0000000000000000 18.0000000000000000 192
12.6872604354328011  -3.4242197883780072 11.7320577828401973 0.0000000000000000 18.0000000000000036 193
12.7528112845396819  -3.4246641264404989 11.7350322300414938 0.0000000000000000 18.0000000000000000 194
