 # inv_tmp, energy, phys_var, phys_doublon, phys_num, step_i
0.0681074473369754  -0.1153642619227082 1.6914215693414603 0.0000000000000000 18.0000000000000000 1
0.1356881782107249  -0.2293551858877950 1.7183950736520139 0.0000000000000000 18.0000000000000000 2
0.2027575297915777  -0.3419959479070038 1.7660176653211912 0.0000000000000000 18.0000000000000000 3
0.2693329812153081  -0.4530091298202419 1.8334247806628816 0.0000000000000000 18.0000000000000000 4
0.3354337979704414  -0.5621419502312780 1.9195803872511874 0.0000000000000000 18.0000000000000000 5
0.4010806756579264  -0.6691677093776414 2.0233057100560994 0.0000000000000000 18.0000000000000000 6
0.4662953931449189  -0.7738865873782517 2.1433089835962900 0.0000000000000000 18.0000000000000000 7
0.5311004832617637  -0.8761258542558519 2.2782151306413709 0.0000000000000000 18.0000000000000000 8
0.5955189272513741  -0.9757395631054928 2.4265944166191775 0.0000000000000000 18.0000000000000000 9
0.6595738773122732  -1.0726078047524938 2.5869893051877852 0.0000000000000000 18.0000000000000000 10
0.7232884098797028  -1.1666356041278716 2.7579389278192301 0.0000000000000000 18.0000000000000000 11
0.7866853108235576  -1.2577515364753769 2.9380007647497863 0.0000000000000000 18.0000000000000000 12
0.8497868925341774  -1.3459061364956386 3.1257693056000737 0.0000000000000000 18.0000000000000000 13
0.9126148419180387  -1.4310701666351600 3.3198916080851295 0.0000000000000000 18.0000000000000000 14
0.9751900976182314  -1.5132328027847128 3.5190797983978497 0.0000000000000000 18.0000000000000000 15
1.0375327542817925  -1.5923997873216460 3.7221206555957300 0.0000000000000000 18.0000000000000000 16
1.0996619913852892  -1.6685915911932268 3.9278824952483502 0.0000000000000000 18.0000000000000000 17
1.1615960239686065  -1.7418416189180608 4.1353196167673101 0.0000000000000000 18.0000000000000000 18
1.2233520725838158  -1.8121944831801429 4.3434746072069288 0.0000000000000000 18.0000000000000000 19
1.2849463498136819  -1.8797043692135693 4.5514788053143107 0.0000000000000000 18.0000000000000000 20
1.3463940608291496  -1.9444335034686298 4.7585512267453680 0.0000000000000000 18.0000000000000000 21
1.4077094156171941  -2.0064507361121171 4.9639962380228848 0.0000000000000000 18.0000000000000000 22
1.4689056507034357  -2.0658302427193478 5.1672002460526185 0.0000000000000000 18.0000000000000000 23
1.5299950584047814  -2.1226503470189177 5.3676276444830027 0.0000000000000000 18.0000000000000000 24
1.5909890218655878  -2.1769924637004614 5.5648162300946264 0.0000000000000000 18.0000000000000000 25
1.6518980543483126  -2.2289401580319854 5.7583722734921823 0.0000000000000000 18.0000000000000000 26
1.7127318414600872  -2.2785783172954432 5.9479653999807356 0.0000000000000000 18.0000000000000000 27
1.7734992851955851  -2.3259924277749029 6.1333234096040208 0.0000000000000000 18.0000000000000000 28
1.8342085488607967  -2.3712679501592429 6.3142271405496899 0.0000000000000000 18.0000000000000000 29
1.8948671021098742  -2.4144897856909933 6.4905054578675703 0.0000000000000000 18.0000000000000000 30
1.9554817654770862  -2.4557418251474372 6.6620304298753412 0.0000000000000000 18.0000000000000000 31
2.0160587539178638  -2.4951065727261144 6.8287127377572876 0.0000000000000000 18.0000000000000000 32
2.0766037189873612  -2.5326648370755906 6.9904973495968727 0.0000000000000000 18.0000000000000000 33
2.1371217893827152  -2.5684954820198023 7.1473594782456873 0.0000000000000000 18.0000000000000000 34
2.1976176096574891  -2.6026752299322404 7.2993008327961171 0.0000000000000000 18.0000000000000000 35
2.2580953769849685  -2.6352785111916432 7.4463461657444761 0.0000000000000000 18.0000000000000000 36
2.3185588759026086  -2.6663773536662938 7.5885401119513016 0.0000000000000000 18.0000000000000000 37
2.3790115110144825  -2.6960413067069631 7.7259443109782877 0.0000000000000000 18.0000000000000000 38
2.4394563376635663  -2.7243373946614331 7.8586348010749933 0.0000000000000000 18.0000000000000000 39
2.4998960906125824  -2.7513300954427025 7.9866996707905962 0.0000000000000000 18.0000000000000000 40
2.5603332107921184  -2.7770813401786709 8.1102369527083518 0.0000000000000000 18.0000000000000000 41
2.6207698701891453  -2.8016505304365316 8.2293527429782731 0.0000000000000000 18.0000000000000000 42
2.6812079949588346  -2.8250945699460317 8.3441595300154638 0.0000000000000000 18.0000000000000000 43
2.7416492868486624  -2.8474679081400556 8.4547747158184485 0.0000000000000000 18.0000000000000000 44
2.8020952430269856  -2.8688225931880833 8.5613193137447716 0.0000000000000000 18.0000000000000000 45
2.8625471744092081  -2.8892083325185975 8.6639168071783210 0.0000000000000000 18.0000000000000000 46
2.9230062225738727  -2.9086725591119924 8.7626921542692013 0.0000000000000000 18.0000000000000000 47
2.9834733753589964  -2.9272605020979885 8.8577709247695058 0.0000000000000000 18.0000000000000000 48
3.0439494812260328  -2.9450152604135393 8.9492785558864227 0.0000000000000000 18.0000000000000000 49
3.1044352624752856  -2.9619778784712523 9.0373397149957562 0.0000000000000000 18.0000000000000000 50
3.1649313273926807  -2.9781874229571912 9.1220777579799197 0.0000000000000000 18.0000000000000000 51
3.2254381814036357  -2.9936810600231731 9.2036142728575179 0.0000000000000000 18.0000000000000000 52
3.2859562373055429  -3.0084941322648708 9.2820686992432506 0.0000000000000000 18.0000000000000000 53
3.3464858246461304  -3.0226602349855489 9.3575580150088591 0.0000000000000000 18.0000000000000000 54
3.4070271983108449  -3.0362112913382129 9.4301964823021756 0.0000000000000000 18.0000000000000000 55
3.4675805463783433  -3.0491776260183876 9.5000954458187241 0.0000000000000000 18.0000000000000000 56
3.5281459972993474  -3.0615880372474291 9.5673631769074508 0.0000000000000000 18.0000000000000000 57
3.5887236264504176  -3.0734698668436669 9.6321047577288486 0.0000000000000000 18.0000000000000000 58
3.6493134621106980  -3.0848490682274505 9.6944220002708814 0.0000000000000000 18.0000000000000000 59
3.7099154909064112  -3.0957502722471615 9.7544133955673455 0.0000000000000000 18.0000000000000000 60
3.7705296627647336  -3.1061968507479492 9.8121740889569153 0.0000000000000000 18.0000000000000000 61
3.8311558954158027  -3.1162109778338989 9.8677958776711527 0.0000000000000000 18.0000000000000000 62
3.8917940784788185  -3.1258136887986336 9.9213672274493341 0.0000000000000000 18.0000000000000000 63
3.9524440771656839  -3.1350249367195078 9.9729733052493650 0.0000000000000000 18.0000000000000000 64
4.0131057356331761  -3.1438636467272123 10.0226960254601405 0.0000000000000000 18.0000000000000000 65
4.0737788800124299  -3.1523477679763614 10.0706141073243387 0.0000000000000000 18.0000000000000000 66
4.1344633211423965  -3.1604943233537663 10.1168031415540014 0.0000000000000000 18.0000000000000000 67
4.1951588570319691  -3.1683194569701167 10.1613356643671544 0.0000000000000000 18.0000000000000000 68
4.2558652750736563  -3.1758384794879664 10.2042812373943796 0.0000000000000000 18.0000000000000000 69
4.3165823540299497  -3.1830659113445083 10.2457065321017691 0.0000000000000000 18.0000000000000000 70
4.3773098658119514  -3.1900155239319132 10.2856754175534526 0.0000000000000000 18.0000000000000000 71
4.4380475770683185  -3.1967003788011183 10.3242490504943039 0.0000000000000000 18.0000000000000000 72
4.4987952506012316  -3.2031328649571531 10.3614859668738148 0.0000000000000000 18.0000000000000000 73
4.5595526466247378  -3.2093247343154871 10.3974421740569021 0.0000000000000000 18.0000000000000000 74
4.6203195238796795  -3.2152871353895245 10.4321712430778000 0.0000000000000000 18.0000000000000000 75
4.6810956406182589  -3.2210306452795523 10.4657244003912098 0.0000000000000000 18.0000000000000000 76
4.7418807554702580  -3.2265653000330694 10.4981506186613167 0.0000000000000000 18.0000000000000000 77
4.8026746282019612  -3.2319006234456711 10.5294967062052613 0.0000000000000000 18.0000000000000000 78
4.8634770203779265  -3.2370456543706023 10.5598073947748077 0.0000000000000000 18.0000000000000000 79
4.9242876959349315  -3.2420089726037453 10.5891254254184517 0.0000000000000000 18.0000000000000000 80
4.9851064216766190  -3.2467987234092504 10.6174916322176038 0.0000000000000000 18.0000000000000000 81
5.0459329676966762  -3.2514226407492908 10.6449450237351559 0.0000000000000000 18.0000000000000000 82
5.1067671077376922  -3.2558880692795711 10.6715228620535552 0.0000000000000000 18.0000000000000000 83
5.1676086194922535  -3.2602019851702604 10.6972607393132471 0.0000000000000000 18.0000000000000000 84
5.2284572848522339  -3.2643710158099761 10.7221926516911594 0.0000000000000000 18.0000000000000000 85
5.2893128901117539  -3.2684014584484027 10.7463510707839358 0.0000000000000000 18.0000000000000000 86
5.3501752261287558  -3.2722992978309904 10.7697670123817879 0.0000000000000000 18.0000000000000000 87
5.4110440884497324  -3.2760702228771033 10.7924701026368801 0.0000000000000000 18.0000000000000000 88
5.4719192774017120  -3.2797196424508632 10.8144886416453883 0.0000000000000000 18.0000000000000000 89
5.5328005981552515  -3.2832527002718401 10.8358496644750666 0.0000000000000000 18.0000000000000000 90
5.5936878607618050  -3.2866742890107199 10.8565789996806785 0.0000000000000000 18.0000000000000000 91
5.6545808801685506  -3.2899890636130298 10.8767013253583364 0.0000000000000000 18.0000000000000000 92
5.7154794762134653  -3.2932014538920154 10.8962402227966244 0.0000000000000000 18.0000000000000000 93
5.7763834736031257  -3.2963156764298982 10.9152182277880350 0.0000000000000000 18.0000000000000000 94
5.8372927018755485  -3.2993357458247945 10.9336568796683462 0.0000000000000000 18.0000000000000000 95
5.8982069953500655  -3.3022654853188254 10.9515767681548333 0.0000000000000000 18.0000000000000000 96
5.9591261930661030  -3.3051085368411508 10.9689975780563245 0.0000000000000000 18.0000000000000000 97
6.0200501387125041  -3.3078683704980154 10.9859381319296148 0.0000000000000000 18.0000000000000000 98
6.0809786805488724  -3.3105482935402111 11.0024164307573500 0.0000000000000000 18.0000000000000000 99
6.1419116713202779  -3.3131514588368516 11.0184496927227862 0.0000000000000000 18.0000000000000000 100
6.2028489681664780  -3.3156808728828158 11.0340543901563066 0.0000000000000000 18.0000000000000000 101
6.2637904325267462  -3.3181394033657980 11.0492462847279143 0.0000000000000000 18.0000000000000000 102
6.3247359300412151  -3.3205297863175165 11.0640404609587861 0.0000000000000000 18.0000000000000000 103
6.3856853304495917  -3.3228546328723523 11.0784513581235888 0.0000000000000000 18.0000000000000000 104
6.4466385074879664  -3.3251164356553580 11.0924928006135257 0.0000000000000000 18.0000000000000000 105
6.5075953387843697  -3.3273175748205039 11.1061780268285215 0.0000000000000000 18.0000000000000000 106
6.5685557057536421  -3.3294603237587603 11.1195197166647368 0.0000000000000000 18.0000000000000000 107
6.6295194934921478  -3.3315468544946425 11.1325300176617716 0.0000000000000000 18.0000000000000000 108
6.6904865906727187  -3.3335792427887405 11.1452205698716469 0.0000000000000000 18.0000000000000000 109
6.7514568894402531  -3.3355594729628280 11.1576025295095569 0.0000000000000000 18.0000000000000000 110
6.8124302853082765  -3.3374894424631965 11.1696865914442185 0.0000000000000000 18.0000000000000000 111
6.8734066770567406  -3.3393709661769870 11.1814830105832872 0.0000000000000000 18.0000000000000000 112
6.9343859666313215  -3.3412057805154558 11.1930016222072730 0.0000000000000000 18.0000000000000000 113
6.9953680590443907  -3.3429955472773414 11.2042518613031081 0.0000000000000000 18.0000000000000000 114
7.0563528622778575  -3.3447418573047143 11.2152427809463369 0.0000000000000000 18.0000000000000000 115
7.1173402871879876  -3.3464462339430443 11.2259830697789429 0.0000000000000000 18.0000000000000000 116
7.1783302474123563  -3.3481101363164880 11.2364810686275014 0.0000000000000000 18.0000000000000000 117
7.2393226592789741  -3.3497349624288244 11.2467447863045997 0.0000000000000000 18.0000000000000000 118
7.3003174417176906  -3.3513220520998344 11.2567819146343027 0.0000000000000000 18.0000000000000000 119
7.3613145161739144  -3.3528726897463681 11.2665998427406375 0.0000000000000000 18.0000000000000000 120
7.4223138065246763  -3.3543881070168347 11.2762056706362408 0.0000000000000000 18.0000000000000000 121
7.4833152389970703  -3.3558694852872986 11.2856062221464732 0.0000000000000000 18.0000000000000000 122
7.5443187420890627  -3.3573179580269512 11.2948080572026655 0.0000000000000000 18.0000000000000000 123
7.6053242464926818  -3.3587346130402320 11.3038174835364824 0.0000000000000000 18.0000000000000000 124
7.6663316850195535  -3.3601204945925018 11.3126405678058379 0.0000000000000000 18.0000000000000000 125
7.7273409925287995  -3.3614766054257075 11.3212831461812335 0.0000000000000000 18.0000000000000000 126
7.7883521058572196  -3.3628039086701822 11.3297508344200324 0.0000000000000000 18.0000000000000000 127
7.8493649637517722  -3.3641033296583123 11.3380490374546952 0.0000000000000000 18.0000000000000000 128
7.9103795068042784  -3.3653757576454986 11.3461829585197975 0.0000000000000000 18.0000000000000000 129
7.9713956773883234  -3.3666220474435251 11.3541576078412447 0.0000000000000000 18.0000000000000000 130
8.0324134195983188  -3.3678430209711463 11.3619778109100746 0.0000000000000000 18.0000000000000000 131
8.0934326791906468  -3.3690394687264287 11.3696482163618633 0.0000000000000000 18.0000000000000000 132
8.1544534035268654  -3.3702121511851342 11.3771733034819569 0.0000000000000000 18.0000000000000000 133
8.2154755415188969  -3.3713618001291659 11.3845573893553755 0.0000000000000000 18.0000000000000000 134
8.2764990435761714  -3.3724891199088898 11.3918046356795610 0.0000000000000000 18.0000000000000000 135
8.3375238615546472  -3.3735947886428974 11.3989190552569504 0.0000000000000000 18.0000000000000000 136
8.3985499487076591  -3.3746794593586027 11.4059045181836538 0.0000000000000000 18.0000000000000000 137
8.4595772596385466  -3.3757437610768637 11.4127647577495601 0.0000000000000000 18.0000000000000000 138
8.5206057502550028  -3.3767882998435947 11.4195033760643767 0.0000000000000000 18.0000000000000000 139
8.5816353777250871  -3.3778136597112614 11.4261238494234867 0.0000000000000000 18.0000000000000000 140
8.6426661004348340  -3.3788204036728757 11.4326295334266206 0.0000000000000000 18.0000000000000000 141
8.7036978779474410  -3.3798090745510390 11.4390236678617079 0.0000000000000000 18.0000000000000000 142
8.7647306709639352  -3.3807801958444079 11.4453093813657283 0.0000000000000000 18.0000000000000000 143
8.8257644412853065  -3.3817342725338193 11.4514896958735672 0.0000000000000000 18.0000000000000000 144
8.8867991517760316  -3.3826717918501990 11.4575675308654894 0.0000000000000000 18.0000000000000000 145
8.9478347663289508  -3.3835932240062458 11.4635457074231901 0.0000000000000000 18.0000000000000000 146
9.0088712498314383  -3.3844990228937819 11.4694269521038450 0.0000000000000000 18.0000000000000000 147
9.0699085681328313  -3.3853896267485468 11.4752139006411937 0.0000000000000000 18.0000000000000000 148
9.1309466880130650  -3.3862654587841199 11.4809091014820801 0.0000000000000000 18.0000000000000000 149
9.1919855771524563  -3.3871269277965603 11.4865150191665322 0.0000000000000000 18.0000000000000000 150
9.2530252041026309  -3.3879744287412525 11.4920340375590371 0.0000000000000000 18.0000000000000000 151
9.3140655382585038  -3.3888083432833978 11.4974684629381834 0.0000000000000000 18.0000000000000000 152
9.3751065498312887  -3.3896290403234617 11.5028205269515809 0.0000000000000000 18.0000000000000000 153
9.4361482098225267  -3.3904368764988719 11.5080923894425489 0.0000000000000000 18.0000000000000000 154
9.4971904899990509  -3.3912321966631382 11.5132861411547118 0.0000000000000000 18.0000000000000000 155
9.5582333628688776  -3.3920153343435442 11.5184038063203751 0.0000000000000000 18.0000000000000000 156
9.6192768016579784  -3.3927866121784693 11.5234473451382389 0.0000000000000000 18.0000000000000000 157
9.6803207802879001  -3.3935463423353527 11.5284186561456465 0.0000000000000000 18.0000000000000000 158
9.7413652733542069  -3.3942948269102651 11.5333195784904419 0.0000000000000000 18.0000000000000000 159
9.8024102561056932  -3.3950323583099822 11.5381518941071040 0.0000000000000000 18.0000000000000000 160
9.8634557044243714  -3.3957592196174273 11.5429173298016821 0.0000000000000000 18.0000000000000000 161
9.9245015948061521  -3.3964756849412820 11.5476175592497885 0.0000000000000000 18.0000000000000000 162
9.9855479043422495  -3.3971820197505460 11.5522542049117050 0.0000000000000000 18.0000000000000000 163
10.0465946107012307  -3.3978784811947653 11.5568288398684196 0.0000000000000000 18.0000000000000000 164
10.1076416921117218  -3.3985653184106162 11.5613429895822808 0.0000000000000000 18.0000000000000000 165
10.1686891273457256  -3.3992427728155006 11.5657981335856945 0.0000000000000000 18.0000000000000000 166
10.2297368957025157  -3.3999110783887803 11.5701957071012025 0.0000000000000000 18.0000000000000000 167
10.2907849769931232  -3.4005704619412080 11.5745371025960040 0.0000000000000000 18.0000000000000000 168
10.3518333515253556  -3.4012211433731467 11.5788236712739625 0.0000000000000000 18.0000000000000000 169
10.4128820000893381  -3.4018633359220769 11.5830567245078768 0.0000000000000000 18.0000000000000000 170
10.4739309039435611  -3.4024972463999035 11.5872375352147046 0.0000000000000000 18.0000000000000000 171
10.5349800448014168  -3.4031230754205346 11.5913673391763243 0.0000000000000000 18.0000000000000000 172
10.5960294048181876  -3.4037410176181759 11.5954473363081831 0.0000000000000000 18.0000000000000000 173
10.6570789665784993  -3.4043512618567826 11.5994786918782733 0.0000000000000000 18.0000000000000000 174
10.7181287130841802  -3.4049539914310447 11.6034625376784497 0.0000000000000000 18.0000000000000000 175
10.7791786277425619  -3.4055493842593370 11.6073999731503843 0.0000000000000000 18.0000000000000000 176
10.8402286943551367  -3.4061376130689416 11.6112920664679500 0.0000000000000000 18.0000000000000000 177
10.9012788971066428  -3.4067188455739390 11.6151398555780627 0.0000000000000000 18.0000000000000000 178
10.9623292205544782  -3.4072932446460715 11.6189443492017297 0.0000000000000000 18.0000000000000000 179
11.0233796496184819  -3.4078609684788983 11.6227065277970105 0.0000000000000000 18.0000000000000000 180
11.0844301695710534  -3.4084221707455389 11.6264273444855473 0.0000000000000000 18.0000000000000000 181
11.1454807660275925  -3.4089770007502969 11.6301077259442120 0.0000000000000000 18.0000000000000000 182
11.2065314249372676  -3.4095256035744166 11.6337485732633574 0.0000000000000000 18.0000000000000000 183
11.2675821325740539  -3.4100681202162377 11.6373507627730461 0.0000000000000000 18.0000000000000000 184
11.3286328755281005  -3.4106046877260066 11.6409151468386938 0.0000000000000000 18.0000000000000000 185
11.3896836406973367  -3.4111354393355402 11.6444425546272949 0.0000000000000000 18.0000000000000000 186
11.4507344152793831  -3.4116605045830060 11.6479337928455635 0.0000000000000000 18.0000000000000000 187
11.5117851867636976  -3.4121800094329862 11.6513896464510651 0.0000000000000000 18.0000000000000000 188
11.5728359429239713  -3.4126940763920652 11.6548108793375249 0.0000000000000000 18.0000000000000000 189
11.6338866718107798  -3.4132028246200989 11.6581982349953250 0.0000000000000000 18.0000000000000000 190
11.6949373617444401  -3.4137063700373749 11.6615524371482557 0.0000000000000000 18.0000000000000000 191
11.7559880013081148  -3.4142048254278108 11.6648741903674065 0.0000000000000000 18.0000000000000000 192
11.8170385793411103  -3.4146983005383729 11.6681641806632239 0.0000000000000000 18.0000000000000000 193
11.8780890849323963  -3.4151869021748729 11.6714230760565449 0.0000000000000000 18.0000000000000000 194
