 # inv_tmp, energy, phys_var, phys_doublon, phys_num, step_i
0.020671  7.248244 89.839770 1.946141 8.000000 1
0.041018  6.481931 78.628305 1.899534 8.000000 2
0.061061  5.736844 68.618068 1.854490 8.000000 3
0.080822  5.016766 59.777009 1.811222 8.000000 4
0.100326  4.324861 52.054363 1.769892 8.000000 5
0.119598  3.663605 45.384600 1.730617 8.000000 6
0.138662  3.034766 39.691501 1.693466 8.000000 7
0.157541  2.439412 34.892086 1.658465 8.000000 8
0.176260  1.877959 30.900206 1.625601 8.000000 9
0.194837  1.350236 27.629641 1.594831 8.000000 10
0.213293  0.855579 24.996600 1.566084 8.000000 11
0.231644  0.392923 22.921625 1.539272 8.000000 12
0.249906  -0.039101 21.330895 1.514292 8.000000 13
0.268091  -0.442074 20.157015 1.491034 8.000000 14
0.286211  -0.817714 19.339374 1.469382 8.000000 15
0.304276  -1.167802 18.824157 1.449222 8.000000 16
0.322293  -1.494134 18.564107 1.430441 8.000000 17
0.340270  -1.798475 18.518120 1.412930 8.000000 18
0.358212  -2.082530 18.650740 1.396587 8.000000 19
0.376124  -2.347922 18.931602 1.381315 8.000000 20
0.394010  -2.596179 19.334865 1.367025 8.000000 21
0.411874  -2.828730 19.838660 1.353633 8.000000 22
0.429718  -3.046898 20.424579 1.341064 8.000000 23
0.447545  -3.251904 21.077200 1.329248 8.000000 24
0.465355  -3.444871 21.783661 1.318122 8.000000 25
0.483151  -3.626828 22.533290 1.307628 8.000000 26
0.500934  -3.798717 23.317274 1.297714 8.000000 27
0.518704  -3.961399 24.128374 1.288334 8.000000 28
0.536463  -4.115659 24.960684 1.279443 8.000000 29
0.554210  -4.262215 25.809419 1.271004 8.000000 30
0.571947  -4.401724 26.670738 1.262980 8.000000 31
0.589673  -4.534785 27.541593 1.255340 8.000000 32
0.607388  -4.661949 28.419599 1.248055 8.000000 33
0.625094  -4.783717 29.302926 1.241099 8.000000 34
0.642788  -4.900552 30.190208 1.234447 8.000000 35
0.660472  -5.012877 31.080463 1.228078 8.000000 36
0.678146  -5.121083 31.973028 1.221973 8.000000 37
0.695808  -5.225528 32.867505 1.216112 8.000000 38
0.713459  -5.326542 33.763706 1.210479 8.000000 39
0.731098  -5.424431 34.661622 1.205060 8.000000 40
0.748725  -5.519475 35.561379 1.199840 8.000000 41
0.766340  -5.611935 36.463213 1.194807 8.000000 42
0.783942  -5.702050 37.367443 1.189950 8.000000 43
0.801530  -5.790041 38.274447 1.185257 8.000000 44
0.819104  -5.876111 39.184641 1.180720 8.000000 45
0.836664  -5.960450 40.098467 1.176329 8.000000 46
0.854210  -6.043229 41.016372 1.172076 8.000000 47
0.871740  -6.124606 41.938795 1.167954 8.000000 48
0.889254  -6.204727 42.866158 1.163957 8.000000 49
0.906752  -6.283723 43.798852 1.160077 8.000000 50
0.924234  -6.361715 44.737229 1.156311 8.000000 51
0.941698  -6.438809 45.681594 1.152652 8.000000 52
0.959145  -6.515103 46.632193 1.149097 8.000000 53
0.976574  -6.590682 47.589214 1.145641 8.000000 54
0.993985  -6.665620 48.552772 1.142280 8.000000 55
1.011378  -6.739983 49.522913 1.139012 8.000000 56
1.028752  -6.813826 50.499603 1.135833 8.000000 57
1.046108  -6.887194 51.482729 1.132741 8.000000 58
1.063445  -6.960122 52.472096 1.129734 8.000000 59
1.080763  -7.032639 53.467425 1.126810 8.000000 60
1.098063  -7.104763 54.468351 1.123966 8.000000 61
1.115344  -7.176505 55.474427 1.121203 8.000000 62
1.132606  -7.247867 56.485125 1.118517 8.000000 63
1.149850  -7.318847 57.499834 1.115909 8.000000 64
1.167077  -7.389432 58.517870 1.113377 8.000000 65
1.184286  -7.459605 59.538475 1.110921 8.000000 66
1.201478  -7.529344 60.560824 1.108539 8.000000 67
1.218653  -7.598619 61.584030 1.106230 8.000000 68
1.235813  -7.667399 62.607152 1.103996 8.000000 69
1.252957  -7.735645 63.629202 1.101833 8.000000 70
1.270088  -7.803317 64.649150 1.099743 8.000000 71
1.287204  -7.870371 65.665936 1.097725 8.000000 72
1.304308  -7.936762 66.678475 1.095777 8.000000 73
1.321400  -8.002442 67.685668 1.093900 8.000000 74
1.338481  -8.067362 68.686409 1.092092 8.000000 75
1.355552  -8.131474 69.679596 1.090354 8.000000 76
1.372614  -8.194727 70.664136 1.088683 8.000000 77
1.389667  -8.257075 71.638957 1.087079 8.000000 78
1.406714  -8.318469 72.603012 1.085542 8.000000 79
1.423755  -8.378864 73.555292 1.084070 8.000000 80
1.440791  -8.438217 74.494826 1.082662 8.000000 81
1.457823  -8.496485 75.420691 1.081316 8.000000 82
1.474852  -8.553632 76.332018 1.080032 8.000000 83
1.491880  -8.609621 77.227995 1.078808 8.000000 84
1.508906  -8.664420 78.107873 1.077643 8.000000 85
1.525932  -8.718002 78.970965 1.076535 8.000000 86
1.542959  -8.770340 79.816653 1.075482 8.000000 87
1.559988  -8.821414 80.644388 1.074483 8.000000 88
1.577019  -8.871207 81.453691 1.073536 8.000000 89
1.594053  -8.919706 82.244151 1.072639 8.000000 90
1.611091  -8.966899 83.015428 1.071791 8.000000 91
1.628134  -9.012782 83.767250 1.070989 8.000000 92
1.645183  -9.057351 84.499411 1.070233 8.000000 93
1.662237  -9.100609 85.211772 1.069519 8.000000 94
1.679297  -9.142558 85.904251 1.068846 8.000000 95
1.696365  -9.183207 86.576830 1.068213 8.000000 96
1.713439  -9.222566 87.229544 1.067617 8.000000 97
1.730522  -9.260647 87.862482 1.067056 8.000000 98
1.747612  -9.297468 88.475780 1.066529 8.000000 99
1.764710  -9.333045 89.069620 1.066035 8.000000 100
1.781817  -9.367399 89.644226 1.065570 8.000000 101
1.798933  -9.400551 90.199858 1.065135 8.000000 102
1.816058  -9.432526 90.736811 1.064726 8.000000 103
1.833191  -9.463348 91.255409 1.064343 8.000000 104
1.850334  -9.493043 91.756002 1.063983 8.000000 105
1.867485  -9.521639 92.238965 1.063646 8.000000 106
1.884646  -9.549165 92.704690 1.063330 8.000000 107
1.901816  -9.575648 93.153587 1.063034 8.000000 108
1.918995  -9.601118 93.586079 1.062756 8.000000 109
1.936183  -9.625605 94.002600 1.062495 8.000000 110
1.953380  -9.649138 94.403592 1.062250 8.000000 111
1.970586  -9.671748 94.789500 1.062019 8.000000 112
1.987801  -9.693465 95.160777 1.061803 8.000000 113
2.005025  -9.714319 95.517873 1.061599 8.000000 114
2.022256  -9.734338 95.861241 1.061406 8.000000 115
2.039497  -9.753552 96.191329 1.061225 8.000000 116
2.056745  -9.771991 96.508583 1.061054 8.000000 117
2.074002  -9.789681 96.813443 1.060891 8.000000 118
2.091266  -9.806652 97.106344 1.060737 8.000000 119
2.108538  -9.822930 97.387713 1.060591 8.000000 120
2.125818  -9.838541 97.657971 1.060452 8.000000 121
2.143105  -9.853512 97.917526 1.060319 8.000000 122
2.160399  -9.867868 98.166781 1.060193 8.000000 123
2.177700  -9.881634 98.406128 1.060071 8.000000 124
2.195007  -9.894832 98.635947 1.059955 8.000000 125
2.212322  -9.907487 98.856609 1.059843 8.000000 126
2.229642  -9.919620 99.068474 1.059735 8.000000 127
2.246969  -9.931254 99.271892 1.059630 8.000000 128
2.264302  -9.942408 99.467200 1.059529 8.000000 129
2.281640  -9.953103 99.654726 1.059431 8.000000 130
2.298985  -9.963359 99.834785 1.059335 8.000000 131
2.316334  -9.973194 100.007683 1.059242 8.000000 132
2.333689  -9.982625 100.173713 1.059150 8.000000 133
2.351049  -9.991671 100.333160 1.059061 8.000000 134
2.368414  -10.000348 100.486296 1.058973 8.000000 135
2.385783  -10.008671 100.633384 1.058887 8.000000 136
2.403158  -10.016656 100.774676 1.058802 8.000000 137
2.420536  -10.024317 100.910416 1.058718 8.000000 138
2.437919  -10.031670 101.040837 1.058635 8.000000 139
2.455306  -10.038726 101.166161 1.058553 8.000000 140
2.472697  -10.045499 101.286605 1.058472 8.000000 141
2.490092  -10.052001 101.402374 1.058391 8.000000 142
2.507491  -10.058245 101.513666 1.058311 8.000000 143
2.524893  -10.064240 101.620669 1.058231 8.000000 144
2.542299  -10.069999 101.723565 1.058152 8.000000 145
2.559708  -10.075531 101.822528 1.058073 8.000000 146
2.577120  -10.080847 101.917723 1.057995 8.000000 147
2.594535  -10.085955 102.009311 1.057916 8.000000 148
2.611953  -10.090864 102.097443 1.057838 8.000000 149
2.629374  -10.095584 102.182264 1.057760 8.000000 150
2.646798  -10.100123 102.263914 1.057682 8.000000 151
2.664225  -10.104488 102.342527 1.057604 8.000000 152
2.681654  -10.108686 102.418230 1.057526 8.000000 153
2.699085  -10.112726 102.491145 1.057448 8.000000 154
2.716519  -10.116613 102.561388 1.057371 8.000000 155
2.733956  -10.120355 102.629071 1.057293 8.000000 156
2.751394  -10.123957 102.694300 1.057215 8.000000 157
2.768835  -10.127426 102.757177 1.057138 8.000000 158
2.786278  -10.130767 102.817800 1.057060 8.000000 159
2.803722  -10.133985 102.876261 1.056982 8.000000 160
2.821169  -10.137086 102.932650 1.056905 8.000000 161
2.838617  -10.140075 102.987051 1.056827 8.000000 162
2.856068  -10.142956 103.039546 1.056750 8.000000 163
2.873520  -10.145734 103.090212 1.056673 8.000000 164
2.890973  -10.148413 103.139124 1.056595 8.000000 165
2.908428  -10.150998 103.186353 1.056518 8.000000 166
2.925885  -10.153492 103.231967 1.056441 8.000000 167
2.943343  -10.155898 103.276031 1.056364 8.000000 168
2.960803  -10.158221 103.318606 1.056287 8.000000 169
2.978264  -10.160464 103.359752 1.056210 8.000000 170
2.995726  -10.162630 103.399526 1.056133 8.000000 171
3.013190  -10.164723 103.437982 1.056057 8.000000 172
3.030655  -10.166744 103.475172 1.055980 8.000000 173
3.048121  -10.168698 103.511146 1.055904 8.000000 174
3.065588  -10.170587 103.545952 1.055828 8.000000 175
3.083057  -10.172413 103.579634 1.055752 8.000000 176
3.100526  -10.174179 103.612237 1.055676 8.000000 177
3.117996  -10.175887 103.643801 1.055601 8.000000 178
3.135468  -10.177540 103.674368 1.055526 8.000000 179
3.152940  -10.179139 103.703975 1.055450 8.000000 180
3.170414  -10.180687 103.732659 1.055376 8.000000 181
3.187888  -10.182186 103.760455 1.055301 8.000000 182
3.205363  -10.183638 103.787396 1.055227 8.000000 183
3.222839  -10.185044 103.813514 1.055153 8.000000 184
3.240316  -10.186406 103.838841 1.055079 8.000000 185
3.257793  -10.187727 103.863405 1.055006 8.000000 186
3.275272  -10.189006 103.887236 1.054933 8.000000 187
3.292751  -10.190247 103.910359 1.054860 8.000000 188
3.310230  -10.191450 103.932802 1.054787 8.000000 189
3.327711  -10.192617 103.954589 1.054715 8.000000 190
3.345192  -10.193750 103.975743 1.054643 8.000000 191
3.362674  -10.194849 103.996289 1.054572 8.000000 192
3.380156  -10.195915 104.016247 1.054501 8.000000 193
3.397639  -10.196951 104.035639 1.054430 8.000000 194
3.415122  -10.197956 104.054485 1.054360 8.000000 195
3.432607  -10.198933 104.072805 1.054290 8.000000 196
3.450091  -10.199882 104.090617 1.054220 8.000000 197
3.467576  -10.200804 104.107939 1.054151 8.000000 198
3.485062  -10.201700 104.124788 1.054082 8.000000 199
3.502548  -10.202571 104.141180 1.054013 8.000000 200
3.520035  -10.203419 104.157133 1.053945 8.000000 201
3.537522  -10.204243 104.172660 1.053878 8.000000 202
3.555009  -10.205044 104.187776 1.053810 8.000000 203
3.572497  -10.205824 104.202496 1.053743 8.000000 204
3.589986  -10.206584 104.216833 1.053677 8.000000 205
3.607474  -10.207323 104.230800 1.053611 8.000000 206
3.624964  -10.208042 104.244409 1.053545 8.000000 207
3.642453  -10.208743 104.257672 1.053480 8.000000 208
3.659943  -10.209426 104.270602 1.053415 8.000000 209
3.677433  -10.210091 104.283208 1.053351 8.000000 210
3.694924  -10.210739 104.295502 1.053287 8.000000 211
3.712415  -10.211371 104.307495 1.053223 8.000000 212
3.729906  -10.211987 104.319195 1.053160 8.000000 213
3.747398  -10.212588 104.330612 1.053097 8.000000 214
3.764890  -10.213173 104.341756 1.053035 8.000000 215
3.782382  -10.213745 104.352636 1.052973 8.000000 216
3.799874  -10.214303 104.363259 1.052911 8.000000 217
3.817367  -10.214847 104.373635 1.052850 8.000000 218
3.834860  -10.215379 104.383770 1.052790 8.000000 219
3.852353  -10.215898 104.393673 1.052729 8.000000 220
3.869847  -10.216404 104.403351 1.052670 8.000000 221
3.887341  -10.216899 104.412810 1.052610 8.000000 222
3.904835  -10.217383 104.422059 1.052551 8.000000 223
3.922329  -10.217856 104.431102 1.052493 8.000000 224
3.939823  -10.218317 104.439947 1.052435 8.000000 225
3.957318  -10.218769 104.448600 1.052377 8.000000 226
3.974813  -10.219211 104.457066 1.052320 8.000000 227
3.992308  -10.219643 104.465352 1.052263 8.000000 228
4.009803  -10.220065 104.473462 1.052206 8.000000 229
4.027299  -10.220478 104.481402 1.052150 8.000000 230
4.044795  -10.220883 104.489177 1.052094 8.000000 231
4.062290  -10.221279 104.496792 1.052039 8.000000 232
4.079786  -10.221666 104.504251 1.051984 8.000000 233
4.097283  -10.222046 104.511559 1.051930 8.000000 234
4.114779  -10.222418 104.518722 1.051876 8.000000 235
4.132275  -10.222782 104.525741 1.051822 8.000000 236
4.149772  -10.223138 104.532623 1.051769 8.000000 237
4.167269  -10.223488 104.539371 1.051716 8.000000 238
4.184766  -10.223831 104.545989 1.051664 8.000000 239
4.202263  -10.224166 104.552480 1.051612 8.000000 240
4.219760  -10.224496 104.558848 1.051560 8.000000 241
4.237258  -10.224819 104.565097 1.051509 8.000000 242
4.254755  -10.225135 104.571229 1.051458 8.000000 243
4.272253  -10.225446 104.577248 1.051407 8.000000 244
4.289751  -10.225751 104.583158 1.051357 8.000000 245
4.307249  -10.226050 104.588961 1.051307 8.000000 246
4.324747  -10.226344 104.594660 1.051258 8.000000 247
4.342245  -10.226633 104.600258 1.051209 8.000000 248
4.359743  -10.226916 104.605758 1.051160 8.000000 249
4.377241  -10.227194 104.611162 1.051112 8.000000 250
4.394740  -10.227467 104.616473 1.051064 8.000000 251
4.412238  -10.227735 104.621693 1.051016 8.000000 252
4.429737  -10.227999 104.626825 1.050969 8.000000 253
4.447236  -10.228258 104.631871 1.050922 8.000000 254
4.464735  -10.228513 104.636834 1.050875 8.000000 255
4.482234  -10.228763 104.641714 1.050829 8.000000 256
4.499733  -10.229009 104.646516 1.050783 8.000000 257
4.517232  -10.229251 104.651240 1.050738 8.000000 258
4.534731  -10.229489 104.655888 1.050692 8.000000 259
4.552230  -10.229724 104.660463 1.050648 8.000000 260
4.569730  -10.229954 104.664967 1.050603 8.000000 261
4.587229  -10.230181 104.669400 1.050559 8.000000 262
4.604729  -10.230404 104.673765 1.050515 8.000000 263
4.622228  -10.230624 104.678064 1.050472 8.000000 264
4.639728  -10.230840 104.682298 1.050428 8.000000 265
4.657227  -10.231053 104.686468 1.050386 8.000000 266
4.674727  -10.231263 104.690577 1.050343 8.000000 267
4.692227  -10.231469 104.694626 1.050301 8.000000 268
4.709727  -10.231673 104.698615 1.050259 8.000000 269
4.727227  -10.231873 104.702547 1.050217 8.000000 270
4.744727  -10.232071 104.706423 1.050176 8.000000 271
4.762227  -10.232265 104.710245 1.050135 8.000000 272
4.779727  -10.232457 104.714012 1.050094 8.000000 273
4.797228  -10.232646 104.717727 1.050054 8.000000 274
4.814728  -10.232832 104.721392 1.050014 8.000000 275
4.832228  -10.233016 104.725006 1.049974 8.000000 276
4.849729  -10.233197 104.728571 1.049935 8.000000 277
4.867229  -10.233376 104.732089 1.049895 8.000000 278
4.884729  -10.233552 104.735560 1.049856 8.000000 279
4.902230  -10.233726 104.738985 1.049818 8.000000 280
4.919731  -10.233898 104.742365 1.049779 8.000000 281
4.937231  -10.234067 104.745702 1.049741 8.000000 282
4.954732  -10.234234 104.748996 1.049704 8.000000 283
4.972233  -10.234399 104.752248 1.049666 8.000000 284
4.989733  -10.234562 104.755459 1.049629 8.000000 285
5.007234  -10.234722 104.758630 1.049592 8.000000 286
5.024735  -10.234881 104.761762 1.049555 8.000000 287
5.042236  -10.235038 104.764855 1.049519 8.000000 288
5.059737  -10.235192 104.767910 1.049483 8.000000 289
5.077238  -10.235345 104.770929 1.049447 8.000000 290
5.094739  -10.235496 104.773911 1.049411 8.000000 291
5.112240  -10.235645 104.776858 1.049376 8.000000 292
5.129741  -10.235792 104.779770 1.049341 8.000000 293
5.147242  -10.235937 104.782648 1.049306 8.000000 294
5.164743  -10.236081 104.785493 1.049271 8.000000 295
5.182244  -10.236223 104.788304 1.049237 8.000000 296
5.199745  -10.236364 104.791084 1.049203 8.000000 297
5.217247  -10.236502 104.793832 1.049169 8.000000 298
5.234748  -10.236639 104.796549 1.049136 8.000000 299
5.252249  -10.236775 104.799236 1.049102 8.000000 300
5.269750  -10.236909 104.801893 1.049069 8.000000 301
5.287252  -10.237041 104.804521 1.049036 8.000000 302
5.304753  -10.237172 104.807120 1.049004 8.000000 303
5.322255  -10.237302 104.809691 1.048971 8.000000 304
5.339756  -10.237430 104.812234 1.048939 8.000000 305
5.357257  -10.237557 104.814750 1.048907 8.000000 306
5.374759  -10.237682 104.817240 1.048876 8.000000 307
5.392260  -10.237806 104.819703 1.048844 8.000000 308
5.409762  -10.237929 104.822140 1.048813 8.000000 309
5.427263  -10.238050 104.824552 1.048782 8.000000 310
5.444765  -10.238170 104.826939 1.048751 8.000000 311
5.462267  -10.238289 104.829301 1.048721 8.000000 312
5.479768  -10.238407 104.831639 1.048690 8.000000 313
5.497270  -10.238523 104.833954 1.048660 8.000000 314
5.514772  -10.238638 104.836245 1.048630 8.000000 315
5.532273  -10.238752 104.838513 1.048601 8.000000 316
5.549775  -10.238865 104.840759 1.048571 8.000000 317
5.567277  -10.238977 104.842983 1.048542 8.000000 318
5.584778  -10.239088 104.845185 1.048513 8.000000 319
5.602280  -10.239197 104.847365 1.048484 8.000000 320
5.619782  -10.239305 104.849524 1.048455 8.000000 321
5.637284  -10.239413 104.851662 1.048427 8.000000 322
5.654786  -10.239519 104.853780 1.048399 8.000000 323
5.672288  -10.239624 104.855877 1.048371 8.000000 324
5.689789  -10.239729 104.857955 1.048343 8.000000 325
5.707291  -10.239832 104.860012 1.048315 8.000000 326
5.724793  -10.239934 104.862051 1.048288 8.000000 327
5.742295  -10.240035 104.864071 1.048260 8.000000 328
5.759797  -10.240136 104.866071 1.048233 8.000000 329
5.777299  -10.240235 104.868054 1.048207 8.000000 330
5.794801  -10.240334 104.870018 1.048180 8.000000 331
5.812303  -10.240431 104.871964 1.048153 8.000000 332
5.829805  -10.240528 104.873892 1.048127 8.000000 333
5.847307  -10.240624 104.875803 1.048101 8.000000 334
5.864809  -10.240718 104.877696 1.048075 8.000000 335
5.882311  -10.240812 104.879573 1.048049 8.000000 336
5.899813  -10.240906 104.881433 1.048024 8.000000 337
5.917315  -10.240998 104.883276 1.047998 8.000000 338
5.934817  -10.241089 104.885103 1.047973 8.000000 339
5.952319  -10.241180 104.886913 1.047948 8.000000 340
5.969822  -10.241270 104.888708 1.047923 8.000000 341
5.987324  -10.241359 104.890487 1.047899 8.000000 342
6.004826  -10.241447 104.892251 1.047874 8.000000 343
6.022328  -10.241535 104.893999 1.047850 8.000000 344
6.039830  -10.241621 104.895732 1.047826 8.000000 345
6.057332  -10.241707 104.897451 1.047802 8.000000 346
6.074835  -10.241793 104.899154 1.047778 8.000000 347
6.092337  -10.241877 104.900843 1.047755 8.000000 348
6.109839  -10.241961 104.902518 1.047731 8.000000 349
6.127341  -10.242044 104.904178 1.047708 8.000000 350
6.144844  -10.242126 104.905825 1.047685 8.000000 351
6.162346  -10.242208 104.907457 1.047662 8.000000 352
6.179848  -10.242289 104.909076 1.047639 8.000000 353
6.197350  -10.242369 104.910681 1.047616 8.000000 354
6.214853  -10.242449 104.912273 1.047594 8.000000 355
6.232355  -10.242528 104.913852 1.047571 8.000000 356
6.249857  -10.242606 104.915417 1.047549 8.000000 357
6.267360  -10.242683 104.916970 1.047527 8.000000 358
6.284862  -10.242760 104.918510 1.047505 8.000000 359
6.302365  -10.242837 104.920037 1.047484 8.000000 360
6.319867  -10.242912 104.921552 1.047462 8.000000 361
6.337369  -10.242987 104.923054 1.047441 8.000000 362
6.354872  -10.243062 104.924544 1.047420 8.000000 363
6.372374  -10.243136 104.926022 1.047398 8.000000 364
6.389877  -10.243209 104.927488 1.047378 8.000000 365
6.407379  -10.243282 104.928942 1.047357 8.000000 366
6.424881  -10.243354 104.930385 1.047336 8.000000 367
6.442384  -10.243425 104.931816 1.047316 8.000000 368
6.459886  -10.243496 104.933235 1.047295 8.000000 369
6.477389  -10.243566 104.934643 1.047275 8.000000 370
6.494891  -10.243636 104.936040 1.047255 8.000000 371
6.512394  -10.243705 104.937426 1.047235 8.000000 372
6.529896  -10.243774 104.938801 1.047215 8.000000 373
6.547399  -10.243842 104.940164 1.047196 8.000000 374
6.564901  -10.243910 104.941517 1.047176 8.000000 375
6.582404  -10.243977 104.942860 1.047157 8.000000 376
