 # inv_tmp, energy, phys_var, phys_doublon, phys_num, step_i
0.0584719271686586  -1.2044481316842053 19.9368384543455264 0.0000000000000000 33.0000000000000284 1
0.1134705696922495  -2.2514313698137518 21.8704538251849669 0.0000000000000000 33.0000000000000000 2
0.1658464484527546  -3.1780433405497002 25.5145242020452230 0.0000000000000000 32.9999999999999787 3
0.2161662774567744  -4.0085477444543391 30.3060951070122684 0.0000000000000000 32.9999999999999432 4
0.2648311363890352  -4.7599104710635860 35.8735864699585676 0.0000000000000000 33.0000000000000355 5
0.3121376101567068  -5.4445821635383034 41.9602481346678360 0.0000000000000000 33.0000000000000000 6
0.3583124620863316  -6.0720432063198810 48.3827498155282925 0.0000000000000000 32.9999999999999574 7
0.4035336747774753  -6.6497269002965904 55.0070215766311463 0.0000000000000000 32.9999999999999574 8
0.4479439086473114  -7.1836025728218935 61.7333211547993841 0.0000000000000000 32.9999999999999858 9
0.4916594838346419  -7.6785603808804543 68.4865688936021257 0.0000000000000000 32.9999999999999858 10
0.5347765888859388  -8.1386744618551852 75.2098501307232539 0.0000000000000000 33.0000000000000142 11
0.5773757017880695  -8.5673883152245907 81.8599052145761164 0.0000000000000000 32.9999999999999289 12
0.6195248193407479  -8.9676487338590576 88.4039124588753396 0.0000000000000000 33.0000000000000711 13
0.6612818689752584  -9.3420046936862420 94.8171385532259023 0.0000000000000000 33.0000000000000142 14
0.7026965454753729  -9.6926817744707421 101.0811869058874350 0.0000000000000000 32.9999999999999787 15
0.7438117341539867  -10.0216391200078068 107.1826681218203845 0.0000000000000000 33.0000000000000284 16
0.7846646307800613  -10.3306136995106623 113.1121749641926613 0.0000000000000000 32.9999999999999858 17
0.8252876351891217  -10.6211551767042849 118.8634812352559322 0.0000000000000000 33.0000000000000711 18
0.8657090732752507  -10.8946537273012609 124.4329082564017881 0.0000000000000000 33.0000000000000142 19
0.9059537869262223  -11.1523624904914289 129.8188188248562938 0.0000000000000000 32.9999999999999929 20
0.9460436209641527  -11.3954158870560729 135.0212095600181215 0.0000000000000000 33.0000000000000782 21
0.9859978287478911  -11.6248447178379273 140.0413802053733434 0.0000000000000000 33.0000000000000355 22
1.0258334127900930  -11.8415887282203052 144.8816638459941259 0.0000000000000000 33.0000000000000711 23
1.0655654128924223  -12.0465071587735526 149.5452058616955355 0.0000000000000000 33.0000000000000071 24
1.1052071514729302  -12.2403876805936900 154.0357822384760880 0.0000000000000000 33.0000000000000639 25
1.1447704436557786  -12.4239540234285570 158.3576499242444982 0.0000000000000000 33.0000000000001492 26
1.1842657781113939  -12.5978725367851290 162.5154234550357728 0.0000000000000000 33.0000000000000568 27
1.2237024734325561  -12.7627578727668762 166.5139732432308506 0.0000000000000000 33.0000000000001421 28
1.2630888139080538  -12.9191779401049249 170.3583418126966649 0.0000000000000000 33.0000000000002203 29
1.3024321678381223  -13.0676582486384980 174.0536749596374477 0.0000000000000000 33.0000000000002132 30
1.3417390909732800  -13.2086857401061586 177.6051653633467993 0.0000000000000000 33.0000000000003624 31
1.3810154172122908  -13.3427121828878636 181.0180066047314540 0.0000000000000000 33.0000000000003979 32
1.4202663383384129  -13.4701571940472959 184.2973558988355762 0.0000000000000000 33.0000000000005258 33
1.4594964742853656  -13.5914109407464174 187.4483041299900492 0.0000000000000000 33.0000000000006040 34
1.4987099351902924  -13.7068365641494445 190.4758520089858962 0.0000000000000000 33.0000000000006821 35
1.5379103762992266  -13.8167723617667857 193.3848913614942262 0.0000000000000000 33.0000000000007390 36
1.5771010466322735  -13.9215337584226937 196.1801907140781225 0.0000000000000000 33.0000000000008811 37
1.6162848321844701  -14.0214150913506614 198.8663844747545681 0.0000000000000000 33.0000000000009948 38
1.6554642943287992  -14.1166912310994679 201.4479651141826935 0.0000000000000000 33.0000000000011369 39
1.6946417039960733  -14.2076190567922964 203.9292778449769798 0.0000000000000000 33.0000000000011298 40
1.7338190721292386  -14.2944388016789130 206.3145173735569813 0.0000000000000000 33.0000000000012790 41
1.7729981768443608  -14.3773752827574288 208.6077263637780277 0.0000000000000000 33.0000000000013145 42
1.8121805876751553  -14.4566390264279931 210.8127953064757776 0.0000000000000000 33.0000000000015419 43
1.8513676872307983  -14.5324273006119444 212.9334635355050978 0.0000000000000000 33.0000000000017195 44
1.8905606905561958  -14.6049250624809765 214.9733211704346161 0.0000000000000000 33.0000000000018971 45
1.9297606624493040  -14.6743058298385733 216.9358117996696933 0.0000000000000000 33.0000000000020535 46
1.9689685329599615  -14.7407324832608069 218.8242357465121586 0.0000000000000000 33.0000000000021529 47
2.0081851112687361  -14.8043580052980701 220.6417537852023827 0.0000000000000000 33.0000000000022524 48
2.0474110981216036  -14.8653261623471984 222.3913911949561566 0.0000000000000000 33.0000000000024869 49
2.0866470969764306  -14.9237721342055654 224.0760420580372454 0.0000000000000000 33.0000000000026432 50
2.1258936239997919  -14.9798230958003895 225.6984737232526470 0.0000000000000000 33.0000000000027995 51
2.1651511170374413  -15.0335987551309351 227.2613313694685360 0.0000000000000000 33.0000000000028564 52
2.2044199436679897  -15.0852118510704170 228.7671426150564002 0.0000000000000000 33.0000000000031051 53
2.2437004084375740  -15.1347686143209383 230.2183221287958190 0.0000000000000000 33.0000000000032401 54
2.2829927593623784  -15.1823691945138375 231.6171762060811830 0.0000000000000000 33.0000000000034390 55
2.3222971937766630  -15.2281080561694573 232.9659072812215470 0.0000000000000000 33.0000000000036096 56
2.3616138635952506  -15.2720743459939747 234.2666183526920349 0.0000000000000000 33.0000000000037090 57
2.4009428800520864  -15.3143522337705456 235.5213173032090026 0.0000000000000000 33.0000000000039080 58
2.4402843179697213  -15.3550212289091643 236.7319211008023672 0.0000000000000000 33.0000000000041140 59
2.4796382196085309  -15.3941564745460422 237.9002598706601077 0.0000000000000000 33.0000000000041922 60
2.5190045981392437  -15.4318290209235141 239.0280808305504365 0.0000000000000000 33.0000000000044054 61
2.5583834407775958  -15.4681060796388667 240.1170520850906200 0.0000000000000000 33.0000000000046541 62
2.5977747116155872  -15.5030512602222963 241.1687662762709294 0.0000000000000000 33.0000000000047393 63
2.6371783541802429  -15.5367247903823795 242.1847440892962879 0.0000000000000000 33.0000000000048885 64
2.6765942937472524  -15.5691837211529744 243.1664376142080926 0.0000000000000000 33.0000000000050591 65
2.7160224394339951  -15.6004821180741402 244.1152335648745861 0.0000000000000000 33.0000000000051159 66
2.7554626860937801  -15.6306712394505691 245.0324563578080017 0.0000000000000000 33.0000000000053930 67
2.7949149160308213  -15.6597997026469216 245.9193710539511244 0.0000000000000000 33.0000000000056701 68
2.8343790005532736  -15.6879136393059184 246.7771861671303100 0.0000000000000000 33.0000000000057625 69
2.8738548013799687  -15.7150568403020010 247.6070563432370761 0.0000000000000000 33.0000000000059259 70
2.9133421719147492  -15.7412708911815464 248.4100849144749645 0.0000000000000000 33.0000000000059757 71
2.9528409584008593  -15.7665952987812261 249.1873263332094552 0.0000000000000000 33.0000000000062244 72
2.9923510009666052  -15.7910676096615248 249.9397884900511428 0.0000000000000000 33.0000000000063025 73
3.0318721345722794  -15.8147235209439536 250.6684349208618414 0.0000000000000000 33.0000000000064233 74
3.0714041898674460  -15.8375969840926842 251.3741869073196256 0.0000000000000000 33.0000000000066080 75
3.1109469939666807  -15.8597203021415361 252.0579254757013814 0.0000000000000000 33.0000000000067573 76
3.1505003711510930  -15.8811242208275942 252.7204932983998447 0.0000000000000000 33.0000000000068638 77
3.1900641435022625  -15.9018380140572759 253.3626965026180642 0.0000000000000000 33.0000000000069278 78
3.2296381314746050  -15.9218895640978637 253.9853063905636930 0.0000000000000000 33.0000000000071196 79
3.2692221544115667  -15.9413054368581708 254.5890610753042722 0.0000000000000000 33.0000000000073044 80
3.3088160310105534  -15.9601109525944800 255.1746670363365013 0.0000000000000000 33.0000000000073541 81
3.3484195797411038  -15.9783302523515562 255.7428005987455322 0.0000000000000000 33.0000000000076881 82
3.3880326192203967  -15.9959863604257251 256.2941093396684096 0.0000000000000000 33.0000000000076952 83
3.4276549685496707  -16.0131012431175748 256.8292134256645340 0.0000000000000000 33.0000000000077307 84
3.4672864476151144  -16.0296958640178708 257.3487068843833185 0.0000000000000000 33.0000000000078728 85
3.5069268773561926  -16.0457902360563693 257.8531588138039297 0.0000000000000000 33.0000000000080718 86
3.5465760800042467  -16.0614034705246311 258.3431145321753206 0.0000000000000000 33.0000000000081144 87
3.5862338792939763  -16.0765538232685437 258.8190966716027788 0.0000000000000000 33.0000000000082707 88
3.6259001006501621  -16.0912587382323942 259.2816062181296388 0.0000000000000000 33.0000000000083773 89
3.6655745713517476  -16.1055348885240939 259.7311235010007522 0.0000000000000000 33.0000000000085834 90
3.7052571206753595  -16.1193982151572683 260.1681091336533882 0.0000000000000000 33.0000000000086402 91
3.7449475800199803  -16.1328639636174387 260.5930049088908049 0.0000000000000000 33.0000000000087539 92
3.7846457830145024  -16.1459467183873215 261.0062346505321216 0.0000000000000000 33.0000000000087965 93
3.8243515656097014  -16.1586604355574970 261.4082050237500425 0.0000000000000000 33.0000000000088392 94
3.8640647661560306  -16.1710184736401033 261.7993063061614407 0.0000000000000000 33.0000000000089599 95
3.9037852254684831  -16.1830336226959304 262.1799131216737351 0.0000000000000000 33.0000000000089813 96
3.9435127868798032  -16.1947181318758204 262.5503851389444208 0.0000000000000000 33.0000000000091802 97
3.9832472962830630  -16.2060837354727880 262.9110677362548358 0.0000000000000000 33.0000000000092157 98
4.0229886021645989  -16.2171416775738919 263.2622926344758980 0.0000000000000000 33.0000000000093650 99
4.0627365556283213  -16.2279027353938368 263.6043784997384023 0.0000000000000000 33.0000000000095852 100
4.1024910104121393  -16.2383772413694913 263.9376315173278158 0.0000000000000000 33.0000000000095355 101
4.1422518228972613  -16.2485751040877027 264.2623459382573401 0.0000000000000000 33.0000000000097060 102
4.1820188521112831  -16.2585058281125043 264.5788045998644975 0.0000000000000000 33.0000000000097344 103
4.2217919597254170  -16.2681785327783466 264.8872794217687670 0.0000000000000000 33.0000000000098197 104
4.2615710100466790  -16.2776019700067707 265.1880318783917687 0.0000000000000000 33.0000000000099973 105
4.3013558700055237  -16.2867845412027563 265.4813134492207496 0.0000000000000000 33.0000000000100044 106
4.3411464091393670  -16.2957343132837380 265.7673660479359228 0.0000000000000000 33.0000000000101323 107
4.3809424995725310  -16.3044590338896640 266.0464224314323474 0.0000000000000000 33.0000000000102816 108
4.4207440159930220  -16.3129661458199493 266.3187065897520256 0.0000000000000000 33.0000000000102531 109
