 # inv_tmp, energy, phys_var, phys_doublon, phys_num, step_i
0.060800  -0.894543 6.714764 0.000000 16.000000 1
0.120284  -1.254743 7.587119 0.000000 16.000000 2
0.178483  -1.616590 8.700936 0.000000 16.000000 3
0.235442  -1.978641 10.053810 0.000000 16.000000 4
0.291210  -2.339515 11.640670 0.000000 16.000000 5
0.345842  -2.697963 13.454211 0.000000 16.000000 6
0.399396  -3.052910 15.485481 0.000000 16.000000 7
0.451933  -3.403496 17.724542 0.000000 16.000000 8
0.503509  -3.749087 20.161116 0.000000 16.000000 9
0.554181  -4.089276 22.785124 0.000000 16.000000 10
0.604000  -4.423862 25.587055 0.000000 16.000000 11
0.653011  -4.752825 28.558100 0.000000 16.000000 12
0.701257  -5.076272 31.690046 0.000000 16.000000 13
0.748775  -5.394388 34.974894 0.000000 16.000000 14
0.795600  -5.707371 38.404271 0.000000 16.000000 15
0.841765  -6.015370 41.968660 0.000000 16.000000 16
0.887302  -6.318424 45.656553 0.000000 16.000000 17
0.932246  -6.616413 49.453648 0.000000 16.000000 18
0.976637  -6.909016 53.342181 0.000000 16.000000 19
1.020520  -7.195698 57.300555 0.000000 16.000000 20
1.063945  -7.475714 61.303329 0.000000 16.000000 21
1.106970  -7.748137 65.321647 0.000000 16.000000 22
1.149658  -8.011913 69.324082 0.000000 16.000000 23
1.192075  -8.265920 73.277846 0.000000 16.000000 24
1.234292  -8.509053 77.150216 0.000000 16.000000 25
1.276378  -8.740292 80.910036 0.000000 16.000000 26
1.318399  -8.958771 84.529109 0.000000 16.000000 27
1.360418  -9.163831 87.983337 0.000000 16.000000 28
1.402489  -9.355049 91.253518 0.000000 16.000000 29
1.444660  -9.532249 94.325738 0.000000 16.000000 30
1.486971  -9.695500 97.191393 0.000000 16.000000 31
1.529451  -9.845085 99.846878 0.000000 16.000000 32
1.572122  -9.981477 102.293039 0.000000 16.000000 33
1.614999  -10.105293 104.534476 0.000000 16.000000 34
1.658090  -10.217261 106.578775 0.000000 16.000000 35
1.701397  -10.318178 108.435757 0.000000 16.000000 36
1.744918  -10.408879 110.116769 0.000000 16.000000 37
1.788647  -10.490209 111.634078 0.000000 16.000000 38
1.832578  -10.562997 113.000350 0.000000 16.000000 39
1.876699  -10.628045 114.228252 0.000000 16.000000 40
1.920999  -10.686113 115.330140 0.000000 16.000000 41
1.965468  -10.737908 116.317838 0.000000 16.000000 42
2.010093  -10.784089 117.202492 0.000000 16.000000 43
2.054862  -10.825255 117.994480 0.000000 16.000000 44
2.099764  -10.861952 118.703369 0.000000 16.000000 45
2.144788  -10.894676 119.337909 0.000000 16.000000 46
2.189924  -10.923870 119.906053 0.000000 16.000000 47
2.235161  -10.949930 120.414984 0.000000 16.000000 48
2.280490  -10.973212 120.871167 0.000000 16.000000 49
2.325904  -10.994032 121.280397 0.000000 16.000000 50
2.371394  -11.012668 121.647853 0.000000 16.000000 51
2.416954  -11.029371 121.978156 0.000000 16.000000 52
2.462576  -11.044359 122.275419 0.000000 16.000000 53
2.508255  -11.057827 122.543295 0.000000 16.000000 54
2.553985  -11.069947 122.785031 0.000000 16.000000 55
2.599762  -11.080871 123.003506 0.000000 16.000000 56
2.645580  -11.090732 123.201272 0.000000 16.000000 57
2.691437  -11.099650 123.380590 0.000000 16.000000 58
2.737328  -11.107729 123.543467 0.000000 16.000000 59
2.783250  -11.115061 123.691677 0.000000 16.000000 60
2.829200  -11.121728 123.826794 0.000000 16.000000 61
2.875176  -11.127801 123.950214 0.000000 16.000000 62
2.921174  -11.133346 124.063171 0.000000 16.000000 63
2.967193  -11.138417 124.166762 0.000000 16.000000 64
3.013230  -11.143066 124.261959 0.000000 16.000000 65
3.059285  -11.147336 124.349626 0.000000 16.000000 66
3.105355  -11.151266 124.430529 0.000000 16.000000 67
3.151439  -11.154892 124.505348 0.000000 16.000000 68
3.197535  -11.158244 124.574689 0.000000 16.000000 69
3.243643  -11.161350 124.639090 0.000000 16.000000 70
3.289761  -11.164233 124.699030 0.000000 16.000000 71
3.335888  -11.166916 124.754936 0.000000 16.000000 72
3.382024  -11.169418 124.807188 0.000000 16.000000 73
3.428167  -11.171755 124.856127 0.000000 16.000000 74
3.474318  -11.173944 124.902054 0.000000 16.000000 75
3.520475  -11.175998 124.945241 0.000000 16.000000 76
3.566637  -11.177929 124.985929 0.000000 16.000000 77
3.612805  -11.179747 125.024336 0.000000 16.000000 78
3.658977  -11.181464 125.060655 0.000000 16.000000 79
3.705154  -11.183087 125.095061 0.000000 16.000000 80
3.751335  -11.184624 125.127710 0.000000 16.000000 81
3.797520  -11.186082 125.158741 0.000000 16.000000 82
3.843708  -11.187468 125.188282 0.000000 16.000000 83
3.889898  -11.188788 125.216445 0.000000 16.000000 84
3.936092  -11.190045 125.243334 0.000000 16.000000 85
3.982288  -11.191246 125.269041 0.000000 16.000000 86
4.028487  -11.192393 125.293649 0.000000 16.000000 87
4.074688  -11.193492 125.317234 0.000000 16.000000 88
4.120891  -11.194545 125.339864 0.000000 16.000000 89
4.167095  -11.195555 125.361602 0.000000 16.000000 90
4.213302  -11.196525 125.382504 0.000000 16.000000 91
4.259510  -11.197457 125.402620 0.000000 16.000000 92
4.305720  -11.198355 125.421999 0.000000 16.000000 93
4.351930  -11.199219 125.440683 0.000000 16.000000 94
4.398143  -11.200053 125.458710 0.000000 16.000000 95
4.444356  -11.200857 125.476116 0.000000 16.000000 96
4.490571  -11.201634 125.492935 0.000000 16.000000 97
4.536787  -11.202384 125.509196 0.000000 16.000000 98
4.583004  -11.203109 125.524927 0.000000 16.000000 99
4.629221  -11.203810 125.540154 0.000000 16.000000 100
4.675440  -11.204489 125.554899 0.000000 16.000000 101
4.721660  -11.205147 125.569186 0.000000 16.000000 102
4.767880  -11.205784 125.583034 0.000000 16.000000 103
4.814101  -11.206401 125.596462 0.000000 16.000000 104
4.860324  -11.207000 125.609487 0.000000 16.000000 105
4.906546  -11.207581 125.622127 0.000000 16.000000 106
4.952770  -11.208144 125.634396 0.000000 16.000000 107
4.998994  -11.208691 125.646308 0.000000 16.000000 108
5.045219  -11.209222 125.657878 0.000000 16.000000 109
5.091445  -11.209738 125.669117 0.000000 16.000000 110
5.137671  -11.210238 125.680037 0.000000 16.000000 111
5.183898  -11.210725 125.690651 0.000000 16.000000 112
5.230126  -11.211198 125.700967 0.000000 16.000000 113
5.276354  -11.211658 125.710997 0.000000 16.000000 114
5.322583  -11.212105 125.720750 0.000000 16.000000 115
5.368812  -11.212539 125.730235 0.000000 16.000000 116
5.415042  -11.212962 125.739460 0.000000 16.000000 117
5.461272  -11.213373 125.748434 0.000000 16.000000 118
5.507503  -11.213773 125.757164 0.000000 16.000000 119
5.553735  -11.214162 125.765659 0.000000 16.000000 120
5.599967  -11.214540 125.773924 0.000000 16.000000 121
5.646200  -11.214908 125.781968 0.000000 16.000000 122
5.692433  -11.215267 125.789795 0.000000 16.000000 123
5.738666  -11.215616 125.797414 0.000000 16.000000 124
5.784901  -11.215955 125.804829 0.000000 16.000000 125
5.831135  -11.216285 125.812048 0.000000 16.000000 126
5.877370  -11.216607 125.819074 0.000000 16.000000 127
5.923606  -11.216920 125.825914 0.000000 16.000000 128
5.969842  -11.217224 125.832573 0.000000 16.000000 129
6.016079  -11.217521 125.839056 0.000000 16.000000 130
6.062316  -11.217810 125.845368 0.000000 16.000000 131
6.108553  -11.218091 125.851513 0.000000 16.000000 132
6.154791  -11.218364 125.857496 0.000000 16.000000 133
6.201029  -11.218631 125.863322 0.000000 16.000000 134
6.247268  -11.218890 125.868994 0.000000 16.000000 135
6.293508  -11.219143 125.874518 0.000000 16.000000 136
6.339747  -11.219389 125.879896 0.000000 16.000000 137
6.385987  -11.219628 125.885132 0.000000 16.000000 138
6.432228  -11.219862 125.890232 0.000000 16.000000 139
6.478469  -11.220089 125.895197 0.000000 16.000000 140
6.524710  -11.220310 125.900033 0.000000 16.000000 141
6.570952  -11.220525 125.904741 0.000000 16.000000 142
6.617194  -11.220735 125.909326 0.000000 16.000000 143
6.663437  -11.220939 125.913791 0.000000 16.000000 144
6.709680  -11.221138 125.918138 0.000000 16.000000 145
6.755923  -11.221331 125.922372 0.000000 16.000000 146
6.802167  -11.221520 125.926494 0.000000 16.000000 147
6.848411  -11.221703 125.930509 0.000000 16.000000 148
6.894656  -11.221882 125.934418 0.000000 16.000000 149
6.940901  -11.222056 125.938225 0.000000 16.000000 150
6.987146  -11.222225 125.941932 0.000000 16.000000 151
7.033392  -11.222390 125.945542 0.000000 16.000000 152
7.079638  -11.222551 125.949057 0.000000 16.000000 153
7.125884  -11.222708 125.952480 0.000000 16.000000 154
7.172131  -11.222860 125.955813 0.000000 16.000000 155
7.218378  -11.223008 125.959059 0.000000 16.000000 156
7.264625  -11.223153 125.962220 0.000000 16.000000 157
7.310873  -11.223294 125.965297 0.000000 16.000000 158
7.357121  -11.223431 125.968294 0.000000 16.000000 159
7.403369  -11.223564 125.971213 0.000000 16.000000 160
7.449618  -11.223694 125.974054 0.000000 16.000000 161
7.495867  -11.223820 125.976821 0.000000 16.000000 162
7.542116  -11.223943 125.979515 0.000000 16.000000 163
7.588366  -11.224063 125.982139 0.000000 16.000000 164
7.634616  -11.224180 125.984694 0.000000 16.000000 165
7.680866  -11.224294 125.987181 0.000000 16.000000 166
7.727116  -11.224405 125.989603 0.000000 16.000000 167
7.773367  -11.224512 125.991961 0.000000 16.000000 168
7.819618  -11.224617 125.994258 0.000000 16.000000 169
7.865869  -11.224720 125.996494 0.000000 16.000000 170
7.912121  -11.224819 125.998671 0.000000 16.000000 171
7.958373  -11.224916 126.000791 0.000000 16.000000 172
8.004625  -11.225010 126.002855 0.000000 16.000000 173
8.050877  -11.225102 126.004864 0.000000 16.000000 174
8.097130  -11.225192 126.006821 0.000000 16.000000 175
8.143383  -11.225279 126.008726 0.000000 16.000000 176
8.189636  -11.225363 126.010581 0.000000 16.000000 177
8.235890  -11.225446 126.012388 0.000000 16.000000 178
8.282143  -11.225526 126.014146 0.000000 16.000000 179
8.328397  -11.225605 126.015858 0.000000 16.000000 180
8.374651  -11.225681 126.017526 0.000000 16.000000 181
8.420906  -11.225755 126.019149 0.000000 16.000000 182
8.467160  -11.225827 126.020729 0.000000 16.000000 183
8.513415  -11.225898 126.022268 0.000000 16.000000 184
8.559670  -11.225966 126.023766 0.000000 16.000000 185
8.605925  -11.226033 126.025224 0.000000 16.000000 186
8.652181  -11.226098 126.026644 0.000000 16.000000 187
8.698436  -11.226161 126.028027 0.000000 16.000000 188
8.744692  -11.226222 126.029373 0.000000 16.000000 189
8.790948  -11.226282 126.030683 0.000000 16.000000 190
8.837204  -11.226341 126.031959 0.000000 16.000000 191
8.883461  -11.226397 126.033201 0.000000 16.000000 192
8.929717  -11.226453 126.034411 0.000000 16.000000 193
8.975974  -11.226507 126.035588 0.000000 16.000000 194
9.022231  -11.226559 126.036735 0.000000 16.000000 195
9.068488  -11.226610 126.037851 0.000000 16.000000 196
9.114745  -11.226660 126.038937 0.000000 16.000000 197
9.161003  -11.226708 126.039995 0.000000 16.000000 198
9.207261  -11.226755 126.041025 0.000000 16.000000 199
9.253518  -11.226801 126.042027 0.000000 16.000000 200
9.299776  -11.226845 126.043003 0.000000 16.000000 201
9.346035  -11.226889 126.043954 0.000000 16.000000 202
9.392293  -11.226931 126.044879 0.000000 16.000000 203
9.438551  -11.226972 126.045779 0.000000 16.000000 204
9.484810  -11.227012 126.046656 0.000000 16.000000 205
9.531069  -11.227051 126.047510 0.000000 16.000000 206
9.577328  -11.227089 126.048341 0.000000 16.000000 207
9.623587  -11.227126 126.049150 0.000000 16.000000 208
9.669846  -11.227162 126.049937 0.000000 16.000000 209
9.716105  -11.227197 126.050704 0.000000 16.000000 210
9.762365  -11.227232 126.051451 0.000000 16.000000 211
9.808624  -11.227265 126.052177 0.000000 16.000000 212
9.854884  -11.227297 126.052885 0.000000 16.000000 213
9.901144  -11.227329 126.053573 0.000000 16.000000 214
9.947404  -11.227359 126.054244 0.000000 16.000000 215
9.993664  -11.227389 126.054897 0.000000 16.000000 216
10.039924  -11.227418 126.055532 0.000000 16.000000 217
10.086185  -11.227446 126.056151 0.000000 16.000000 218
10.132445  -11.227474 126.056753 0.000000 16.000000 219
10.178706  -11.227501 126.057339 0.000000 16.000000 220
10.224966  -11.227527 126.057910 0.000000 16.000000 221
10.271227  -11.227552 126.058465 0.000000 16.000000 222
10.317488  -11.227577 126.059006 0.000000 16.000000 223
10.363749  -11.227601 126.059532 0.000000 16.000000 224
10.410010  -11.227624 126.060045 0.000000 16.000000 225
10.456271  -11.227647 126.060544 0.000000 16.000000 226
10.502532  -11.227669 126.061030 0.000000 16.000000 227
10.548794  -11.227691 126.061502 0.000000 16.000000 228
10.595055  -11.227712 126.061963 0.000000 16.000000 229
10.641317  -11.227732 126.062411 0.000000 16.000000 230
10.687579  -11.227752 126.062847 0.000000 16.000000 231
10.733840  -11.227772 126.063272 0.000000 16.000000 232
10.780102  -11.227791 126.063685 0.000000 16.000000 233
10.826364  -11.227809 126.064087 0.000000 16.000000 234
10.872626  -11.227827 126.064479 0.000000 16.000000 235
10.918888  -11.227844 126.064860 0.000000 16.000000 236
10.965150  -11.227861 126.065232 0.000000 16.000000 237
11.011413  -11.227878 126.065593 0.000000 16.000000 238
11.057675  -11.227894 126.065945 0.000000 16.000000 239
11.103937  -11.227910 126.066287 0.000000 16.000000 240
11.150200  -11.227925 126.066620 0.000000 16.000000 241
11.196462  -11.227940 126.066945 0.000000 16.000000 242
11.242725  -11.227954 126.067261 0.000000 16.000000 243
11.288988  -11.227968 126.067568 0.000000 16.000000 244
11.335250  -11.227982 126.067868 0.000000 16.000000 245
11.381513  -11.227995 126.068159 0.000000 16.000000 246
11.427776  -11.228008 126.068443 0.000000 16.000000 247
11.474039  -11.228021 126.068719 0.000000 16.000000 248
11.520302  -11.228033 126.068988 0.000000 16.000000 249
11.566565  -11.228045 126.069249 0.000000 16.000000 250
11.612828  -11.228057 126.069504 0.000000 16.000000 251
11.659091  -11.228068 126.069752 0.000000 16.000000 252
11.705355  -11.228079 126.069993 0.000000 16.000000 253
11.751618  -11.228090 126.070228 0.000000 16.000000 254
11.797881  -11.228100 126.070457 0.000000 16.000000 255
11.844145  -11.228110 126.070679 0.000000 16.000000 256
11.890408  -11.228120 126.070896 0.000000 16.000000 257
11.936672  -11.228130 126.071107 0.000000 16.000000 258
11.982935  -11.228139 126.071313 0.000000 16.000000 259
12.029199  -11.228149 126.071512 0.000000 16.000000 260
12.075463  -11.228157 126.071707 0.000000 16.000000 261
12.121726  -11.228166 126.071897 0.000000 16.000000 262
12.167990  -11.228174 126.072081 0.000000 16.000000 263
12.214254  -11.228183 126.072260 0.000000 16.000000 264
12.260518  -11.228191 126.072435 0.000000 16.000000 265
12.306782  -11.228198 126.072605 0.000000 16.000000 266
12.353046  -11.228206 126.072771 0.000000 16.000000 267
12.399310  -11.228213 126.072932 0.000000 16.000000 268
12.445574  -11.228221 126.073089 0.000000 16.000000 269
12.491838  -11.228228 126.073242 0.000000 16.000000 270
12.538102  -11.228234 126.073390 0.000000 16.000000 271
12.584366  -11.228241 126.073535 0.000000 16.000000 272
12.630630  -11.228247 126.073676 0.000000 16.000000 273
12.676894  -11.228254 126.073813 0.000000 16.000000 274
12.723158  -11.228260 126.073947 0.000000 16.000000 275
12.769423  -11.228266 126.074076 0.000000 16.000000 276
12.815687  -11.228271 126.074203 0.000000 16.000000 277
12.861951  -11.228277 126.074326 0.000000 16.000000 278
12.908216  -11.228283 126.074446 0.000000 16.000000 279
12.954480  -11.228288 126.074563 0.000000 16.000000 280
13.000745  -11.228293 126.074676 0.000000 16.000000 281
13.047009  -11.228298 126.074787 0.000000 16.000000 282
13.093274  -11.228303 126.074894 0.000000 16.000000 283
13.139538  -11.228308 126.074999 0.000000 16.000000 284
13.185803  -11.228313 126.075101 0.000000 16.000000 285
13.232067  -11.228317 126.075200 0.000000 16.000000 286
13.278332  -11.228321 126.075297 0.000000 16.000000 287
13.324597  -11.228326 126.075391 0.000000 16.000000 288
13.370861  -11.228330 126.075483 0.000000 16.000000 289
13.417126  -11.228334 126.075572 0.000000 16.000000 290
13.463391  -11.228338 126.075658 0.000000 16.000000 291
13.509655  -11.228342 126.075743 0.000000 16.000000 292
13.555920  -11.228346 126.075825 0.000000 16.000000 293
13.602185  -11.228349 126.075905 0.000000 16.000000 294
13.648450  -11.228353 126.075983 0.000000 16.000000 295
13.694715  -11.228356 126.076059 0.000000 16.000000 296
13.740979  -11.228360 126.076133 0.000000 16.000000 297
13.787244  -11.228363 126.076204 0.000000 16.000000 298
13.833509  -11.228366 126.076274 0.000000 16.000000 299
13.879774  -11.228369 126.076342 0.000000 16.000000 300
13.926039  -11.228372 126.076409 0.000000 16.000000 301
13.972304  -11.228375 126.076473 0.000000 16.000000 302
14.018569  -11.228378 126.076536 0.000000 16.000000 303
14.064834  -11.228381 126.076597 0.000000 16.000000 304
14.111099  -11.228384 126.076657 0.000000 16.000000 305
14.157364  -11.228386 126.076715 0.000000 16.000000 306
14.203629  -11.228389 126.076771 0.000000 16.000000 307
14.249894  -11.228391 126.076826 0.000000 16.000000 308
14.296159  -11.228394 126.076879 0.000000 16.000000 309
14.342424  -11.228396 126.076931 0.000000 16.000000 310
14.388689  -11.228399 126.076982 0.000000 16.000000 311
14.434955  -11.228401 126.077031 0.000000 16.000000 312
14.481220  -11.228403 126.077079 0.000000 16.000000 313
14.527485  -11.228405 126.077126 0.000000 16.000000 314
14.573750  -11.228407 126.077171 0.000000 16.000000 315
14.620015  -11.228409 126.077215 0.000000 16.000000 316
14.666280  -11.228411 126.077259 0.000000 16.000000 317
14.712546  -11.228413 126.077300 0.000000 16.000000 318
14.758811  -11.228415 126.077341 0.000000 16.000000 319
14.805076  -11.228417 126.077381 0.000000 16.000000 320
14.851341  -11.228419 126.077420 0.000000 16.000000 321
14.897607  -11.228420 126.077457 0.000000 16.000000 322
14.943872  -11.228422 126.077494 0.000000 16.000000 323
14.990137  -11.228424 126.077530 0.000000 16.000000 324
15.036403  -11.228425 126.077564 0.000000 16.000000 325
15.082668  -11.228427 126.077598 0.000000 16.000000 326
15.128933  -11.228428 126.077631 0.000000 16.000000 327
15.175198  -11.228430 126.077663 0.000000 16.000000 328
15.221464  -11.228431 126.077694 0.000000 16.000000 329
15.267729  -11.228432 126.077724 0.000000 16.000000 330
15.313995  -11.228434 126.077754 0.000000 16.000000 331
15.360260  -11.228435 126.077783 0.000000 16.000000 332
15.406525  -11.228436 126.077811 0.000000 16.000000 333
15.452791  -11.228438 126.077838 0.000000 16.000000 334
15.499056  -11.228439 126.077865 0.000000 16.000000 335
15.545322  -11.228440 126.077890 0.000000 16.000000 336
15.591587  -11.228441 126.077915 0.000000 16.000000 337
15.637852  -11.228442 126.077940 0.000000 16.000000 338
15.684118  -11.228443 126.077964 0.000000 16.000000 339
15.730383  -11.228444 126.077987 0.000000 16.000000 340
15.776649  -11.228445 126.078009 0.000000 16.000000 341
15.822914  -11.228446 126.078031 0.000000 16.000000 342
15.869180  -11.228447 126.078053 0.000000 16.000000 343
15.915445  -11.228448 126.078074 0.000000 16.000000 344
15.961711  -11.228449 126.078094 0.000000 16.000000 345
16.007976  -11.228450 126.078114 0.000000 16.000000 346
16.054242  -11.228451 126.078133 0.000000 16.000000 347
16.100507  -11.228452 126.078151 0.000000 16.000000 348
16.146773  -11.228453 126.078170 0.000000 16.000000 349
16.193038  -11.228454 126.078187 0.000000 16.000000 350
16.239304  -11.228454 126.078204 0.000000 16.000000 351
16.285569  -11.228455 126.078221 0.000000 16.000000 352
16.331835  -11.228456 126.078238 0.000000 16.000000 353
16.378100  -11.228457 126.078253 0.000000 16.000000 354
16.424366  -11.228457 126.078269 0.000000 16.000000 355
16.470631  -11.228458 126.078284 0.000000 16.000000 356
16.516897  -11.228459 126.078299 0.000000 16.000000 357
16.563163  -11.228459 126.078313 0.000000 16.000000 358
16.609428  -11.228460 126.078327 0.000000 16.000000 359
16.655694  -11.228461 126.078340 0.000000 16.000000 360
16.701959  -11.228461 126.078353 0.000000 16.000000 361
16.748225  -11.228462 126.078366 0.000000 16.000000 362
16.794490  -11.228462 126.078379 0.000000 16.000000 363
