 # inv_tmp, energy, phys_var, phys_doublon, phys_num, step_i
0.060734  -0.930569 6.988785 0.000000 16.000000 1
0.120106  -1.303848 7.980457 0.000000 16.000000 2
0.178136  -1.682051 9.244742 0.000000 16.000000 3
0.234855  -2.063641 10.784106 0.000000 16.000000 4
0.290301  -2.447022 12.596765 0.000000 16.000000 5
0.344525  -2.830575 14.676712 0.000000 16.000000 6
0.397584  -3.212711 17.013971 0.000000 16.000000 7
0.449540  -3.591911 19.595027 0.000000 16.000000 8
0.500462  -3.966767 22.403356 0.000000 16.000000 9
0.550418  -4.336010 25.419996 0.000000 16.000000 10
0.599479  -4.698522 28.624049 0.000000 16.000000 11
0.647715  -5.053339 31.993078 0.000000 16.000000 12
0.695194  -5.399629 35.503353 0.000000 16.000000 13
0.741984  -5.736666 39.129980 0.000000 16.000000 14
0.788150  -6.063799 42.846942 0.000000 16.000000 15
0.833759  -6.380416 46.627149 0.000000 16.000000 16
0.878873  -6.685921 50.442558 0.000000 16.000000 17
0.923557  -6.979723 54.264438 0.000000 16.000000 18
0.967876  -7.261234 58.063822 0.000000 16.000000 19
1.011893  -7.529890 61.812114 0.000000 16.000000 20
1.055670  -7.785170 65.481843 0.000000 16.000000 21
1.099268  -8.026632 69.047452 0.000000 16.000000 22
1.142745  -8.253939 72.486067 0.000000 16.000000 23
1.186155  -8.466889 75.778138 0.000000 16.000000 24
1.229546  -8.665430 78.907901 0.000000 16.000000 25
1.272960  -8.849667 81.863622 0.000000 16.000000 26
1.316435  -9.019863 84.637607 0.000000 16.000000 27
1.360002  -9.176421 87.226018 0.000000 16.000000 28
1.403683  -9.319871 89.628522 0.000000 16.000000 29
1.447498  -9.450841 91.847824 0.000000 16.000000 30
1.491459  -9.570034 93.889144 0.000000 16.000000 31
1.535575  -9.678204 95.759670 0.000000 16.000000 32
1.579849  -9.776132 97.468046 0.000000 16.000000 33
1.624284  -9.864601 99.023891 0.000000 16.000000 34
1.668876  -9.944386 100.437390 0.000000 16.000000 35
1.713623  -10.016238 101.718953 0.000000 16.000000 36
1.758519  -10.080872 102.878942 0.000000 16.000000 37
1.803557  -10.138962 103.927458 0.000000 16.000000 38
1.848729  -10.191139 104.874192 0.000000 16.000000 39
1.894030  -10.237984 105.728319 0.000000 16.000000 40
1.939450  -10.280032 106.498436 0.000000 16.000000 41
1.984982  -10.317772 107.192528 0.000000 16.000000 42
2.030618  -10.351648 107.817955 0.000000 16.000000 43
2.076350  -10.382060 108.381467 0.000000 16.000000 44
2.122172  -10.409372 108.889222 0.000000 16.000000 45
2.168077  -10.433909 109.346815 0.000000 16.000000 46
2.214059  -10.455963 109.759316 0.000000 16.000000 47
2.260111  -10.475796 110.131303 0.000000 16.000000 48
2.306227  -10.493643 110.466906 0.000000 16.000000 49
2.352404  -10.509713 110.769840 0.000000 16.000000 50
2.398635  -10.524194 111.043446 0.000000 16.000000 51
2.444916  -10.537252 111.290723 0.000000 16.000000 52
2.491243  -10.549037 111.514363 0.000000 16.000000 53
2.537613  -10.559681 111.716781 0.000000 16.000000 54
2.584022  -10.569304 111.900142 0.000000 16.000000 55
2.630466  -10.578012 112.066385 0.000000 16.000000 56
2.676942  -10.585899 112.217251 0.000000 16.000000 57
2.723449  -10.593051 112.354301 0.000000 16.000000 58
2.769983  -10.599542 112.478931 0.000000 16.000000 59
2.816542  -10.605441 112.592399 0.000000 16.000000 60
2.863123  -10.610808 112.695828 0.000000 16.000000 61
2.909726  -10.615697 112.790230 0.000000 16.000000 62
2.956348  -10.620157 112.876512 0.000000 16.000000 63
3.002987  -10.624232 112.955491 0.000000 16.000000 64
3.049642  -10.627959 113.027898 0.000000 16.000000 65
3.096311  -10.631375 113.094393 0.000000 16.000000 66
3.142994  -10.634511 113.155570 0.000000 16.000000 67
3.189688  -10.637395 113.211963 0.000000 16.000000 68
3.236394  -10.640052 113.264054 0.000000 16.000000 69
3.283109  -10.642506 113.312276 0.000000 16.000000 70
3.329833  -10.644777 113.357022 0.000000 16.000000 71
3.376566  -10.646883 113.398644 0.000000 16.000000 72
3.423305  -10.648842 113.437464 0.000000 16.000000 73
3.470051  -10.650669 113.473769 0.000000 16.000000 74
3.516803  -10.652377 113.507821 0.000000 16.000000 75
3.563560  -10.653978 113.539856 0.000000 16.000000 76
3.610321  -10.655485 113.570090 0.000000 16.000000 77
3.657087  -10.656906 113.598716 0.000000 16.000000 78
3.703856  -10.658251 113.625912 0.000000 16.000000 79
3.750627  -10.659529 113.651838 0.000000 16.000000 80
3.797402  -10.660747 113.676639 0.000000 16.000000 81
3.844178  -10.661912 113.700448 0.000000 16.000000 82
3.890957  -10.663030 113.723387 0.000000 16.000000 83
3.937736  -10.664107 113.745565 0.000000 16.000000 84
3.984517  -10.665148 113.767084 0.000000 16.000000 85
4.031298  -10.666158 113.788036 0.000000 16.000000 86
4.078080  -10.667141 113.808504 0.000000 16.000000 87
4.124861  -10.668102 113.828567 0.000000 16.000000 88
4.171643  -10.669043 113.848295 0.000000 16.000000 89
4.218424  -10.669968 113.867753 0.000000 16.000000 90
4.265204  -10.670881 113.887001 0.000000 16.000000 91
4.311983  -10.671783 113.906095 0.000000 16.000000 92
4.358761  -10.672679 113.925086 0.000000 16.000000 93
4.405537  -10.673569 113.944020 0.000000 16.000000 94
4.452312  -10.674456 113.962943 0.000000 16.000000 95
4.499085  -10.675343 113.981893 0.000000 16.000000 96
4.545856  -10.676231 114.000910 0.000000 16.000000 97
4.592625  -10.677122 114.020029 0.000000 16.000000 98
4.639391  -10.678018 114.039282 0.000000 16.000000 99
4.686154  -10.678920 114.058702 0.000000 16.000000 100
4.732915  -10.679830 114.078315 0.000000 16.000000 101
4.779673  -10.680748 114.098151 0.000000 16.000000 102
4.826427  -10.681677 114.118235 0.000000 16.000000 103
4.873178  -10.682618 114.138592 0.000000 16.000000 104
4.919926  -10.683571 114.159244 0.000000 16.000000 105
4.966670  -10.684538 114.180214 0.000000 16.000000 106
5.013410  -10.685519 114.201523 0.000000 16.000000 107
5.060146  -10.686517 114.223190 0.000000 16.000000 108
5.106878  -10.687531 114.245236 0.000000 16.000000 109
5.153605  -10.688562 114.267679 0.000000 16.000000 110
5.200328  -10.689612 114.290536 0.000000 16.000000 111
5.247047  -10.690682 114.313825 0.000000 16.000000 112
5.293760  -10.691771 114.337563 0.000000 16.000000 113
5.340469  -10.692882 114.361766 0.000000 16.000000 114
5.387172  -10.694014 114.386448 0.000000 16.000000 115
5.433870  -10.695168 114.411627 0.000000 16.000000 116
5.480563  -10.696345 114.437316 0.000000 16.000000 117
5.527250  -10.697546 114.463530 0.000000 16.000000 118
5.573931  -10.698772 114.490284 0.000000 16.000000 119
5.620606  -10.700022 114.517590 0.000000 16.000000 120
5.667275  -10.701299 114.545464 0.000000 16.000000 121
5.713938  -10.702601 114.573918 0.000000 16.000000 122
5.760594  -10.703931 114.602965 0.000000 16.000000 123
5.807243  -10.705288 114.632618 0.000000 16.000000 124
5.853886  -10.706673 114.662890 0.000000 16.000000 125
5.900522  -10.708087 114.693793 0.000000 16.000000 126
5.947150  -10.709530 114.725340 0.000000 16.000000 127
5.993772  -10.711004 114.757543 0.000000 16.000000 128
6.040385  -10.712507 114.790412 0.000000 16.000000 129
6.086991  -10.714042 114.823961 0.000000 16.000000 130
6.133589  -10.715608 114.858200 0.000000 16.000000 131
6.180180  -10.717205 114.893141 0.000000 16.000000 132
6.226761  -10.718836 114.928794 0.000000 16.000000 133
6.273335  -10.720499 114.965170 0.000000 16.000000 134
6.319900  -10.722196 115.002281 0.000000 16.000000 135
6.366456  -10.723927 115.040135 0.000000 16.000000 136
6.413003  -10.725692 115.078743 0.000000 16.000000 137
6.459541  -10.727492 115.118116 0.000000 16.000000 138
6.506070  -10.729328 115.158262 0.000000 16.000000 139
6.552589  -10.731199 115.199190 0.000000 16.000000 140
6.599099  -10.733106 115.240910 0.000000 16.000000 141
6.645599  -10.735050 115.283431 0.000000 16.000000 142
6.692089  -10.737031 115.326760 0.000000 16.000000 143
6.738568  -10.739049 115.370906 0.000000 16.000000 144
6.785038  -10.741105 115.415876 0.000000 16.000000 145
6.831496  -10.743199 115.461677 0.000000 16.000000 146
6.877944  -10.745331 115.508317 0.000000 16.000000 147
6.924381  -10.747501 115.555801 0.000000 16.000000 148
6.970807  -10.749711 115.604136 0.000000 16.000000 149
7.017222  -10.751959 115.653327 0.000000 16.000000 150
7.063626  -10.754247 115.703380 0.000000 16.000000 151
7.110018  -10.756575 115.754299 0.000000 16.000000 152
7.156398  -10.758942 115.806088 0.000000 16.000000 153
7.202766  -10.761349 115.858751 0.000000 16.000000 154
7.249122  -10.763797 115.912290 0.000000 16.000000 155
7.295467  -10.766284 115.966708 0.000000 16.000000 156
7.341799  -10.768812 116.022008 0.000000 16.000000 157
7.388118  -10.771380 116.078189 0.000000 16.000000 158
7.434425  -10.773988 116.135254 0.000000 16.000000 159
7.480719  -10.776637 116.193202 0.000000 16.000000 160
7.527000  -10.779326 116.252032 0.000000 16.000000 161
7.573269  -10.782055 116.311742 0.000000 16.000000 162
7.619524  -10.784825 116.372332 0.000000 16.000000 163
7.665766  -10.787634 116.433797 0.000000 16.000000 164
7.711995  -10.790484 116.496136 0.000000 16.000000 165
7.758211  -10.793373 116.559342 0.000000 16.000000 166
7.804413  -10.796301 116.623411 0.000000 16.000000 167
7.850601  -10.799269 116.688338 0.000000 16.000000 168
7.896776  -10.802275 116.754116 0.000000 16.000000 169
7.942938  -10.805320 116.820737 0.000000 16.000000 170
7.989086  -10.808404 116.888193 0.000000 16.000000 171
8.035220  -10.811525 116.956475 0.000000 16.000000 172
8.081340  -10.814683 117.025573 0.000000 16.000000 173
8.127446  -10.817878 117.095476 0.000000 16.000000 174
8.173539  -10.821110 117.166173 0.000000 16.000000 175
8.219618  -10.824377 117.237652 0.000000 16.000000 176
8.265683  -10.827679 117.309898 0.000000 16.000000 177
8.311734  -10.831016 117.382898 0.000000 16.000000 178
8.357771  -10.834386 117.456637 0.000000 16.000000 179
8.403795  -10.837789 117.531099 0.000000 16.000000 180
8.449805  -10.841225 117.606267 0.000000 16.000000 181
8.495801  -10.844692 117.682124 0.000000 16.000000 182
8.541784  -10.848190 117.758651 0.000000 16.000000 183
8.587754  -10.851718 117.835829 0.000000 16.000000 184
8.633710  -10.855274 117.913638 0.000000 16.000000 185
8.679652  -10.858859 117.992058 0.000000 16.000000 186
8.725582  -10.862470 118.071066 0.000000 16.000000 187
8.771499  -10.866107 118.150641 0.000000 16.000000 188
8.817402  -10.869769 118.230758 0.000000 16.000000 189
8.863293  -10.873455 118.311396 0.000000 16.000000 190
8.909172  -10.877163 118.392528 0.000000 16.000000 191
8.955037  -10.880893 118.474130 0.000000 16.000000 192
9.000891  -10.884643 118.556177 0.000000 16.000000 193
9.046733  -10.888412 118.638641 0.000000 16.000000 194
9.092562  -10.892199 118.721496 0.000000 16.000000 195
9.138381  -10.896003 118.804714 0.000000 16.000000 196
9.184187  -10.899822 118.888268 0.000000 16.000000 197
9.229983  -10.903655 118.972128 0.000000 16.000000 198
9.275767  -10.907501 119.056266 0.000000 16.000000 199
9.321541  -10.911358 119.140653 0.000000 16.000000 200
9.367305  -10.915225 119.225258 0.000000 16.000000 201
9.413058  -10.919101 119.310053 0.000000 16.000000 202
9.458802  -10.922984 119.395006 0.000000 16.000000 203
9.504536  -10.926873 119.480088 0.000000 16.000000 204
9.550261  -10.930766 119.565267 0.000000 16.000000 205
9.595976  -10.934662 119.650512 0.000000 16.000000 206
9.641683  -10.938560 119.735794 0.000000 16.000000 207
9.687382  -10.942458 119.821081 0.000000 16.000000 208
9.733073  -10.946355 119.906341 0.000000 16.000000 209
9.778756  -10.950250 119.991545 0.000000 16.000000 210
9.824431  -10.954140 120.076660 0.000000 16.000000 211
9.870100  -10.958025 120.161657 0.000000 16.000000 212
9.915762  -10.961903 120.246505 0.000000 16.000000 213
9.961417  -10.965773 120.331174 0.000000 16.000000 214
10.007067  -10.969634 120.415633 0.000000 16.000000 215
10.052711  -10.973483 120.499853 0.000000 16.000000 216
10.098349  -10.977320 120.583804 0.000000 16.000000 217
10.143983  -10.981144 120.667458 0.000000 16.000000 218
10.189612  -10.984953 120.750785 0.000000 16.000000 219
10.235237  -10.988745 120.833757 0.000000 16.000000 220
10.280858  -10.992520 120.916348 0.000000 16.000000 221
10.326476  -10.996276 120.998529 0.000000 16.000000 222
10.372090  -11.000013 121.080274 0.000000 16.000000 223
10.417701  -11.003728 121.161557 0.000000 16.000000 224
10.463311  -11.007421 121.242353 0.000000 16.000000 225
10.508917  -11.011090 121.322637 0.000000 16.000000 226
10.554523  -11.014736 121.402385 0.000000 16.000000 227
10.600126  -11.018355 121.481574 0.000000 16.000000 228
10.645729  -11.021948 121.560181 0.000000 16.000000 229
10.691331  -11.025513 121.638184 0.000000 16.000000 230
10.736932  -11.029050 121.715562 0.000000 16.000000 231
10.782534  -11.032557 121.792296 0.000000 16.000000 232
10.828135  -11.036034 121.868364 0.000000 16.000000 233
10.873737  -11.039480 121.943750 0.000000 16.000000 234
10.919340  -11.042893 122.018435 0.000000 16.000000 235
10.964944  -11.046274 122.092401 0.000000 16.000000 236
11.010550  -11.049622 122.165633 0.000000 16.000000 237
11.056157  -11.052935 122.238116 0.000000 16.000000 238
11.101766  -11.056213 122.309835 0.000000 16.000000 239
11.147377  -11.059455 122.380776 0.000000 16.000000 240
11.192991  -11.062662 122.450927 0.000000 16.000000 241
11.238608  -11.065831 122.520276 0.000000 16.000000 242
11.284228  -11.068964 122.588811 0.000000 16.000000 243
11.329851  -11.072059 122.656523 0.000000 16.000000 244
11.375477  -11.075116 122.723402 0.000000 16.000000 245
11.421108  -11.078134 122.789439 0.000000 16.000000 246
11.466742  -11.081114 122.854627 0.000000 16.000000 247
11.512380  -11.084054 122.918959 0.000000 16.000000 248
11.558023  -11.086955 122.982428 0.000000 16.000000 249
11.603670  -11.089816 123.045030 0.000000 16.000000 250
11.649322  -11.092638 123.106760 0.000000 16.000000 251
11.694978  -11.095419 123.167613 0.000000 16.000000 252
11.740640  -11.098161 123.227587 0.000000 16.000000 253
11.786307  -11.100861 123.286680 0.000000 16.000000 254
11.831980  -11.103522 123.344889 0.000000 16.000000 255
11.877658  -11.106142 123.402214 0.000000 16.000000 256
11.923341  -11.108722 123.458654 0.000000 16.000000 257
11.969030  -11.111261 123.514210 0.000000 16.000000 258
12.014726  -11.113760 123.568883 0.000000 16.000000 259
12.060427  -11.116219 123.622674 0.000000 16.000000 260
12.106134  -11.118637 123.675584 0.000000 16.000000 261
12.151847  -11.121016 123.727618 0.000000 16.000000 262
12.197567  -11.123354 123.778778 0.000000 16.000000 263
12.243293  -11.125653 123.829067 0.000000 16.000000 264
12.289025  -11.127912 123.878491 0.000000 16.000000 265
12.334764  -11.130131 123.927053 0.000000 16.000000 266
12.380510  -11.132312 123.974759 0.000000 16.000000 267
12.426262  -11.134453 124.021615 0.000000 16.000000 268
12.472020  -11.136556 124.067625 0.000000 16.000000 269
12.517785  -11.138621 124.112798 0.000000 16.000000 270
12.563557  -11.140648 124.157139 0.000000 16.000000 271
12.609336  -11.142637 124.200656 0.000000 16.000000 272
12.655121  -11.144589 124.243356 0.000000 16.000000 273
12.700913  -11.146503 124.285246 0.000000 16.000000 274
12.746712  -11.148381 124.326336 0.000000 16.000000 275
12.792518  -11.150223 124.366632 0.000000 16.000000 276
12.838330  -11.152029 124.406144 0.000000 16.000000 277
12.884149  -11.153800 124.444880 0.000000 16.000000 278
12.929975  -11.155535 124.482850 0.000000 16.000000 279
12.975808  -11.157236 124.520061 0.000000 16.000000 280
13.021647  -11.158903 124.556525 0.000000 16.000000 281
13.067493  -11.160535 124.592250 0.000000 16.000000 282
13.113346  -11.162135 124.627246 0.000000 16.000000 283
13.159205  -11.163702 124.661522 0.000000 16.000000 284
13.205071  -11.165236 124.695089 0.000000 16.000000 285
13.250943  -11.166738 124.727957 0.000000 16.000000 286
13.296822  -11.168209 124.760135 0.000000 16.000000 287
13.342708  -11.169649 124.791634 0.000000 16.000000 288
13.388599  -11.171058 124.822464 0.000000 16.000000 289
13.434498  -11.172437 124.852635 0.000000 16.000000 290
13.480402  -11.173786 124.882158 0.000000 16.000000 291
13.526313  -11.175107 124.911042 0.000000 16.000000 292
13.572230  -11.176398 124.939299 0.000000 16.000000 293
13.618153  -11.177661 124.966937 0.000000 16.000000 294
13.664082  -11.178897 124.993969 0.000000 16.000000 295
13.710018  -11.180105 125.020404 0.000000 16.000000 296
13.755959  -11.181287 125.046252 0.000000 16.000000 297
13.801906  -11.182442 125.071524 0.000000 16.000000 298
13.847859  -11.183571 125.096229 0.000000 16.000000 299
13.893818  -11.184675 125.120379 0.000000 16.000000 300
13.939782  -11.185754 125.143982 0.000000 16.000000 301
13.985752  -11.186808 125.167050 0.000000 16.000000 302
14.031728  -11.187838 125.189591 0.000000 16.000000 303
14.077709  -11.188845 125.211616 0.000000 16.000000 304
14.123696  -11.189829 125.233135 0.000000 16.000000 305
14.169688  -11.190789 125.254158 0.000000 16.000000 306
14.215685  -11.191728 125.274693 0.000000 16.000000 307
14.261687  -11.192645 125.294751 0.000000 16.000000 308
14.307695  -11.193540 125.314341 0.000000 16.000000 309
14.353708  -11.194415 125.333472 0.000000 16.000000 310
14.399725  -11.195269 125.352153 0.000000 16.000000 311
14.445748  -11.196102 125.370395 0.000000 16.000000 312
14.491775  -11.196916 125.388204 0.000000 16.000000 313
14.537807  -11.197711 125.405592 0.000000 16.000000 314
14.583844  -11.198487 125.422565 0.000000 16.000000 315
14.629886  -11.199244 125.439134 0.000000 16.000000 316
14.675932  -11.199983 125.455306 0.000000 16.000000 317
14.721982  -11.200705 125.471089 0.000000 16.000000 318
14.768037  -11.201409 125.486493 0.000000 16.000000 319
14.814096  -11.202096 125.501525 0.000000 16.000000 320
14.860160  -11.202766 125.516194 0.000000 16.000000 321
14.906227  -11.203421 125.530507 0.000000 16.000000 322
14.952299  -11.204059 125.544471 0.000000 16.000000 323
14.998375  -11.204682 125.558096 0.000000 16.000000 324
15.044454  -11.205289 125.571387 0.000000 16.000000 325
15.090538  -11.205882 125.584353 0.000000 16.000000 326
15.136625  -11.206460 125.597001 0.000000 16.000000 327
15.182717  -11.207024 125.609338 0.000000 16.000000 328
15.228812  -11.207574 125.621371 0.000000 16.000000 329
15.274910  -11.208110 125.633106 0.000000 16.000000 330
15.321012  -11.208633 125.644552 0.000000 16.000000 331
15.367118  -11.209143 125.655714 0.000000 16.000000 332
15.413227  -11.209641 125.666598 0.000000 16.000000 333
15.459339  -11.210126 125.677212 0.000000 16.000000 334
15.505455  -11.210599 125.687561 0.000000 16.000000 335
15.551574  -11.211060 125.697652 0.000000 16.000000 336
15.597696  -11.211510 125.707490 0.000000 16.000000 337
15.643821  -11.211948 125.717082 0.000000 16.000000 338
15.689950  -11.212376 125.726433 0.000000 16.000000 339
15.736081  -11.212793 125.735550 0.000000 16.000000 340
15.782215  -11.213199 125.744436 0.000000 16.000000 341
15.828352  -11.213595 125.753099 0.000000 16.000000 342
15.874492  -11.213981 125.761544 0.000000 16.000000 343
15.920635  -11.214357 125.769775 0.000000 16.000000 344
15.966780  -11.214724 125.777797 0.000000 16.000000 345
16.012928  -11.215081 125.785616 0.000000 16.000000 346
16.059079  -11.215429 125.793237 0.000000 16.000000 347
16.105232  -11.215769 125.800664 0.000000 16.000000 348
16.151388  -11.216100 125.807903 0.000000 16.000000 349
16.197546  -11.216422 125.814957 0.000000 16.000000 350
16.243707  -11.216736 125.821831 0.000000 16.000000 351
16.289870  -11.217042 125.828529 0.000000 16.000000 352
16.336035  -11.217341 125.835057 0.000000 16.000000 353
16.382203  -11.217631 125.841417 0.000000 16.000000 354
16.428372  -11.217915 125.847615 0.000000 16.000000 355
16.474544  -11.218191 125.853654 0.000000 16.000000 356
16.520718  -11.218460 125.859538 0.000000 16.000000 357
16.566894  -11.218722 125.865271 0.000000 16.000000 358
16.613073  -11.218977 125.870856 0.000000 16.000000 359
16.659253  -11.219226 125.876298 0.000000 16.000000 360
16.705435  -11.219468 125.881599 0.000000 16.000000 361
16.751619  -11.219704 125.886764 0.000000 16.000000 362
16.797804  -11.219934 125.891796 0.000000 16.000000 363
