 # inv_tmp, energy, phys_var, phys_doublon, phys_num, step_i
0.0309084324315916  -0.7072608559661622 6.4435232316295865 0.0000000000000000 12.0000000000000000 1
0.0616414410128882  -0.8914096470208240 6.8120279475112770 0.0000000000000000 12.0000000000000000 2
0.0921980738748203  -1.0772814207198289 7.2472824413735317 0.0000000000000000 12.0000000000000000 3
0.1225777261214606  -1.2647120576613522 7.7504518969157701 0.0000000000000000 12.0000000000000000 4
0.1527801503482156  -1.4535289905662423 8.3224776527910365 0.0000000000000000 12.0000000000000000 5
0.1828054633722875  -1.6435523240447587 8.9640611082235182 0.0000000000000000 12.0000000000000000 6
0.2126541493161840  -1.8345959625935020 9.6756499141315064 0.0000000000000000 12.0000000000000000 7
0.2423270592563084  -2.0264687282688509 10.4574266174821311 0.0000000000000000 12.0000000000000000 8
0.2718254077023790  -2.2189754524645364 11.3092998782522969 0.0000000000000000 12.0000000000000000 9
0.3011507662088795  -2.4119180295490579 12.2308983313493762 0.0000000000000000 12.0000000000000000 10
0.3303050544377010  -2.6050964235227210 13.2215671211864940 0.0000000000000000 12.0000000000000000 11
0.3592905289936921  -2.7983096220756827 14.2803670949906767 0.0000000000000000 12.0000000000000000 12
0.3881097703450759  -2.9913565352474976 15.4060766027427540 0.0000000000000000 12.0000000000000000 13
0.4167656681222544  -3.1840368381458344 16.5971958171207348 0.0000000000000000 12.0000000000000000 14
0.4452614050651085  -3.3761517587926648 17.8519534560903459 0.0000000000000000 12.0000000000000000 15
0.4736004398638713  -3.5675048131244829 19.1683157640305097 0.0000000000000000 12.0000000000000000 16
0.5017864891146101  -3.7579024895472148 20.5439975847582446 0.0000000000000000 12.0000000000000000 17
0.5298235085889469  -3.9471548853636986 21.9764753418792083 0.0000000000000000 12.0000000000000000 18
0.5577156739995301  -4.1350762970165480 23.4630017289348949 0.0000000000000000 12.0000000000000000 19
0.5854673614276158  -4.3214857655995864 25.0006219041993951 0.0000000000000000 12.0000000000000000 20
0.6130831275659272  -4.5062075786510327 26.5861909828846663 0.0000000000000000 12.0000000000000000 21
0.6405676899173410  -4.6890717289811636 28.2163926228519308 0.0000000000000000 12.0000000000000000 22
0.6679259070764317  -4.8699143312854876 29.8877585082267885 0.0000000000000000 12.0000000000000000 23
0.6951627592053761  -5.0485779975723286 31.5966885476889949 0.0000000000000000 12.0000000000000000 24
0.7222833287975451  -5.2249121729555057 33.3394716193672949 0.0000000000000000 12.0000000000000000 25
0.7492927818014021  -5.3987734340438998 35.1123067106154991 0.0000000000000000 12.0000000000000000 26
0.7761963491548841  -5.5700257528842183 36.9113243167214407 0.0000000000000000 12.0000000000000000 27
0.8029993087576847  -5.7385407300502633 38.7326079760707600 0.0000000000000000 12.0000000000000000 28
0.8297069678876163  -5.9041978008989000 40.5722158289589672 0.0000000000000000 12.0000000000000000 29
0.8563246460494621  -6.0668844191299156 42.4262020920398584 0.0000000000000000 12.0000000000000000 30
0.8828576582322560  -6.2264962215341377 44.2906383398155157 0.0000000000000000 12.0000000000000000 31
0.9093112985451459  -6.3829371771767258 46.1616344787595807 0.0000000000000000 12.0000000000000000 32
0.9356908242036798  -6.5361197232743349 48.0353592894314403 0.0000000000000000 12.0000000000000000 33
0.9620014398475176  -6.6859648887618786 49.9080603986758504 0.0000000000000000 12.0000000000000000 34
0.9882482821865011  -6.8324024051171364 51.7760835295467245 0.0000000000000000 12.0000000000000000 35
1.0144364049932464  -6.9753708025485732 53.6358908630305535 0.0000000000000000 12.0000000000000000 36
1.0405707644850075  -7.1148174882883612 55.4840783350853144 0.0000000000000000 12.0000000000000000 37
1.0666562051631900  -7.2506988025936625 57.3173916868780893 0.0000000000000000 12.0000000000000000 38
1.0926974462031778  -7.3829800472477363 59.1327410869344945 0.0000000000000000 12.0000000000000000 39
1.1186990685078388  -7.5116354809402779 60.9272141522090394 0.0000000000000000 12.0000000000000000 40
1.1446655025533077  -7.6366482759282972 62.6980872112297192 0.0000000000000000 12.0000000000000000 41
1.1706010171640258  -7.7580104308330906 64.4428346762070845 0.0000000000000000 12.0000000000000000 42
1.1965097093547723  -7.8757226352774197 66.1591364214677498 0.0000000000000000 12.0000000000000000 43
1.2223954953703917  -7.9897940832443748 67.8448831014183327 0.0000000000000000 12.0000000000000000 44
1.2482621030395875  -8.1002422334580224 69.4981793807417745 0.0000000000000000 12.0000000000000000 45
1.2741130655384016  -8.2070925166469273 71.1173450907377998 0.0000000000000000 12.0000000000000000 46
1.2999517166332621  -8.3103779911534534 72.7009143666658701 0.0000000000000000 12.0000000000000000 47
1.3257811874442711  -8.4101389498976680 74.2476328597515760 0.0000000000000000 12.0000000000000000 48
1.3516044047384541  -8.5064224831109243 75.7564531525317477 0.0000000000000000 12.0000000000000000 49
1.3774240907316526  -8.5992820024532506 77.2265285361164331 0.0000000000000000 12.0000000000000000 50
1.4032427643481109  -8.6887767330729950 78.6572053317933637 0.0000000000000000 12.0000000000000000 51
1.4290627438598824  -8.7749711808294535 80.0480139566497542 0.0000000000000000 12.0000000000000000 52
1.4548861508049424  -8.8579345822719979 81.3986589433877725 0.0000000000000000 12.0000000000000000 53
1.4807149150640369  -8.9377403450611617 82.7090081284501935 0.0000000000000000 12.0000000000000000 54
1.5065507809621697  -9.0144654863526767 83.9790812204510644 0.0000000000000000 12.0000000000000000 55
1.5323953142513487  -9.0881900762777796 85.2090379534240725 0.0000000000000000 12.0000000000000000 56
1.5582499098265905  -9.1589966930827238 86.3991660174251876 0.0000000000000000 12.0000000000000000 57
1.5841158000268687  -9.2269698957819255 87.5498689435026023 0.0000000000000000 12.0000000000000000 58
1.6099940633761876  -9.2921957193753908 88.6616541019288604 0.0000000000000000 12.0000000000000000 59
1.6358856336266632  -9.3547611968246152 89.7351209528175957 0.0000000000000000 12.0000000000000000 60
1.6617913089747380  -9.4147539111089440 90.7709496676603180 0.0000000000000000 12.0000000000000000 61
1.6877117613328416  -9.4722615798287215 91.7698902196761424 0.0000000000000000 12.0000000000000000 62
1.7136475455512592  -9.5273716740085952 92.7327520207935834 0.0000000000000000 12.0000000000000000 63
1.7395991084981564  -9.5801710720040045 93.6603941640811399 0.0000000000000000 12.0000000000000000 64
1.7655667979191236  -9.6307457487399901 94.5537163128879001 0.0000000000000000 12.0000000000000000 65
1.7915508710108121  -9.6791804999230617 95.4136502621066995 0.0000000000000000 12.0000000000000000 66
1.8175515026559284  -9.7255587003670563 96.2411521829781975 0.0000000000000000 12.0000000000000000 67
1.8435687932787499  -9.7699620951636668 97.0371955507829398 0.0000000000000000 12.0000000000000000 68
1.8696027762912453  -9.8124706221031328 97.8027647445970985 0.0000000000000000 12.0000000000000000 69
1.8956534251097290  -9.8531622635061389 98.5388492999524317 0.0000000000000000 12.0000000000000000 70
1.9217206597306580  -9.8921129254562157 99.2464387886215036 0.0000000000000000 12.0000000000000000 71
1.9478043528617146  -9.9293963423149556 99.9265182946964501 0.0000000000000000 12.0000000000000000 72
1.9739043356107040  -9.9650840043518247 100.5800644524877896 0.0000000000000000 12.0000000000000000 73
2.0000204027401036  -9.9992451063171170 101.2080420093556512 0.0000000000000000 12.0000000000000000 74
2.0261523174994118  -10.0319465148224332 101.8114008752342698 0.0000000000000000 12.0000000000000000 75
2.0522998160508195  -10.0632527524604853 102.3910736201489442 0.0000000000000000 12.0000000000000000 76
2.0784626115062839  -10.0932259966873250 102.9479733812999172 0.0000000000000000 12.0000000000000000 77
2.1046403975959418  -10.1219260915990414 103.4829921421469692 0.0000000000000000 12.0000000000000000 78
2.1308328519889792  -10.1494105708565403 103.9969993472550698 0.0000000000000000 12.0000000000000000 79
2.1570396392887736  -10.1757346901403025 104.4908408183221269 0.0000000000000000 12.0000000000000000 80
2.1832604137243372  -10.2009514676495456 104.9653379387262362 0.0000000000000000 12.0000000000000000 81
2.2094948215599697  -10.2251117312920758 105.4212870759975260 0.0000000000000000 12.0000000000000000 82
2.2357425032445803  -10.2482641713415372 105.8594592137851294 0.0000000000000000 12.0000000000000000 83
2.2620030953214920  -10.2704553974638397 106.2805997670800053 0.0000000000000000 12.0000000000000000 84
2.2882762321187058  -10.2917299991346312 106.6854285566385414 0.0000000000000000 12.0000000000000000 85
2.3145615472386414  -10.3121306085821978 107.0746399206779813 0.0000000000000000 12.0000000000000000 86
2.3408586748653257  -10.3316979654957528 107.4489029439709782 0.0000000000000000 12.0000000000000000 87
2.3671672509059163  -10.3504709828359971 107.8088617864177650 0.0000000000000000 12.0000000000000000 88
2.3934869139823238  -10.3684868131744246 108.1551360950207936 0.0000000000000000 12.0000000000000000 89
2.4198173062875772  -10.3857809150689420 108.4883214849092496 0.0000000000000000 12.0000000000000000 90
2.4461580743204920  -10.4023871190569022 108.8089900766617575 0.0000000000000000 12.0000000000000000 91
2.4725088695111177  -10.4183376929126297 109.1176910786486332 0.0000000000000000 12.0000000000000000 92
2.4988693487484270  -10.4336634058756008 109.4149514044691784 0.0000000000000000 12.0000000000000000 93
2.5252391748207286  -10.4483935916076014 109.7012763167871583 0.0000000000000000 12.0000000000000000 94
2.5516180167783560  -10.4625562096837061 109.9771500899888110 0.0000000000000000 12.0000000000000000 95
2.5780055502273371  -10.4761779054621460 110.2430366850908570 0.0000000000000000 12.0000000000000000 96
2.6044014575619170  -10.4892840682139195 110.4993804312355081 0.0000000000000000 12.0000000000000000 97
2.6308054281430713  -10.5018988874235077 110.7466067089172412 0.0000000000000000 12.0000000000000000 98
2.6572171584294537  -10.5140454071987612 110.9851226308102525 0.0000000000000000 12.0000000000000000 99
2.6836363520665727  -10.5257455787506906 111.2153177167070339 0.0000000000000000 12.0000000000000000 100
2.7100627199394114  -10.5370203109233245 111.4375645596449118 0.0000000000000000 12.0000000000000000 101
2.7364959801931796  -10.5478895187702353 111.6522194808013921 0.0000000000000000 12.0000000000000000 102
2.7629358582263763  -10.5583721701880151 111.8596231711753717 0.0000000000000000 12.0000000000000000 103
2.7893820866599199  -10.5684863306284154 112.0601013184591750 0.0000000000000000 12.0000000000000000 104
2.8158344052856834  -10.5782492059202724 112.2539652178412268 0.0000000000000000 12.0000000000000000 105
2.8422925609974192  -10.5876771832400038 112.4415123657710467 0.0000000000000000 12.0000000000000000 106
2.8687563077067217  -10.5967858702753261 112.6230270359715178 0.0000000000000000 12.0000000000000000 107
2.8952254062463818  -10.6055901326318178 112.7987808372000131 0.0000000000000000 12.0000000000000000 108
2.9216996242632192  -10.6141041295353027 112.9690332524473035 0.0000000000000000 12.0000000000000000 109
2.9481787361022400  -10.6223413478858397 113.1340321594230431 0.0000000000000000 12.0000000000000000 110
2.9746625226837478  -10.6303146347206585 113.2940143323092030 0.0000000000000000 12.0000000000000000 111
3.0011507713748489  -10.6380362281445695 113.4492059248803457 0.0000000000000000 12.0000000000000000 112
3.0276432758566085  -10.6455177867868240 113.5998229351811233 0.0000000000000000 12.0000000000000000 113
3.0541398359879772  -10.6527704178432892 113.7460716520333079 0.0000000000000000 12.0000000000000000 114
3.0806402576674481  -10.6598047037624148 113.8881490837066934 0.0000000000000000 12.0000000000000000 115
3.1071443526933011  -10.6666307276326719 114.0262433691426907 0.0000000000000000 12.0000000000000000 116
3.1336519386231654  -10.6732580973280378 114.1605341721593305 0.0000000000000000 12.0000000000000000 117
3.1601628386335370  -10.6796959684669428 114.2911930591000669 0.0000000000000000 12.0000000000000000 118
3.1866768813798152  -10.6859530662384579 114.4183838604113816 0.0000000000000000 12.0000000000000000 119
3.2131939008573189  -10.6920377061481151 114.5422630166536919 0.0000000000000000 12.0000000000000000 120
3.2397137362636967  -10.6979578137339466 114.6629799094588549 0.0000000000000000 12.0000000000000000 121
3.2662362318630693  -10.7037209433017075 114.7806771779588075 0.0000000000000000 12.0000000000000000 122
3.2927612368522006  -10.7093342957262205 114.8954910212045064 0.0000000000000000 12.0000000000000000 123
3.3192886052289357  -10.7148047353644120 115.0075514871031857 0.0000000000000000 12.0000000000000000 124
3.3458181956631026  -10.7201388061232912 115.1169827483880113 0.0000000000000000 12.0000000000000000 125
3.3723498713700497  -10.7253427467247242 115.2239033661350618 0.0000000000000000 12.0000000000000000 126
3.3988834999869377  -10.7304225052068283 115.3284265413283123 0.0000000000000000 12.0000000000000000 127
3.4254189534518913  -10.7353837527002618 115.4306603549678698 0.0000000000000000 12.0000000000000000 128
3.4519561078860859  -10.7402318965157484 115.5307079972010911 0.0000000000000000 12.0000000000000000 129
3.4784948434788219  -10.7449720925777186 115.6286679859456967 0.0000000000000000 12.0000000000000000 130
3.5050350443756071  -10.7496092572372905 115.7246343754606812 0.0000000000000000 12.0000000000000000 131
3.5315765985692917  -10.7541480784959909 115.8186969553052705 0.0000000000000000 12.0000000000000000 132
3.5581193977942158  -10.7585930266705745 115.9109414401134472 0.0000000000000000 12.0000000000000000 133
3.5846633374233985  -10.7629483645274000 116.0014496505962995 0.0000000000000000 12.0000000000000000 134
3.6112083163687050  -10.7672181569136978 116.0902996861693026 0.0000000000000000 12.0000000000000000 135
3.6377542369839988  -10.7714062799114885 116.1775660895875575 0.0000000000000000 12.0000000000000000 136
3.6643010049711990  -10.7755164295389481 116.2633200039569772 0.0000000000000000 12.0000000000000000 137
3.6908485292892257  -10.7795521300223562 116.3476293224752141 0.0000000000000000 12.0000000000000000 138
3.7173967220657533  -10.7835167416609963 116.4305588312414557 0.0000000000000000 12.0000000000000000 139
3.7439454985117360  -10.7874134683059495 116.5121703454608166 0.0000000000000000 12.0000000000000000 140
3.7704947768386163  -10.7912453644727933 116.5925228393544728 0.0000000000000000 12.0000000000000000 141
3.7970444781781780  -10.7950153421071295 116.6716725700739801 0.0000000000000000 12.0000000000000000 142
3.8235945265049507  -10.7987261770209813 116.7496731959063681 0.0000000000000000 12.0000000000000000 143
3.8501448485611016  -10.8023805150169956 116.8265758890403703 0.0000000000000000 12.0000000000000000 144
3.8766953737837491  -10.8059808777167152 116.9024294431570752 0.0000000000000000 12.0000000000000000 145
3.9032460342346145  -10.8095296681081798 116.9772803760923097 0.0000000000000000 12.0000000000000000 146
3.9297967645319405  -10.8130291758273529 117.0511730278085452 0.0000000000000000 12.0000000000000000 147
3.9563475017846015  -10.8164815821872065 117.1241496539030607 0.0000000000000000 12.0000000000000000 148
3.9828981855283319  -10.8198889649674221 117.1962505148690354 0.0000000000000000 12.0000000000000000 149
4.0094487576639954  -10.8232533029771112 117.2675139613139237 0.0000000000000000 12.0000000000000000 150
4.0359991623978209  -10.8265764804022560 117.3379765153335796 0.0000000000000000 12.0000000000000000 151
4.0625493461835376  -10.8298602909489077 117.4076729482267183 0.0000000000000000 12.0000000000000000 152
4.0890992576663283  -10.8331064417927401 117.4766363547302603 0.0000000000000000 12.0000000000000000 153
4.1156488476285302  -10.8363165573447944 117.5448982239421838 0.0000000000000000 12.0000000000000000 154
4.1421980689370299  -10.8394921828429531 117.6124885070961312 0.0000000000000000 12.0000000000000000 155
4.1687468764922553  -10.8426347877779676 117.6794356823384078 0.0000000000000000 12.0000000000000000 156
4.1952952271787245  -10.8457457691625763 117.7457668166560865 0.0000000000000000 12.0000000000000000 157
4.2218430798170683  -10.8488264546516966 117.8115076250925881 0.0000000000000000 12.0000000000000000 158
4.2483903951174717  -10.8518781055211999 117.8766825273843608 0.0000000000000000 12.0000000000000000 159
4.2749371356344632  -10.8549019195126206 117.9413147021436004 0.0000000000000000 12.0000000000000000 160
4.3014832657230127  -10.8578990335504173 118.0054261387063264 0.0000000000000000 12.0000000000000000 161
4.3280287514958413  -10.8608705263383474 118.0690376867592022 0.0000000000000000 12.0000000000000000 162
4.3545735607819305  -10.8638174208410181 118.1321691038525898 0.0000000000000000 12.0000000000000000 163
4.3811176630861395  -10.8667406866563887 118.1948391009026267 0.0000000000000000 12.0000000000000000 164
4.4076610295498959  -10.8696412422847111 118.2570653857791712 0.0000000000000000 12.0000000000000000 165
4.4342036329129124  -10.8725199572990423 118.3188647050716753 0.0000000000000000 12.0000000000000000 166
4.4607454474758583  -10.8753776544223282 118.3802528841213757 0.0000000000000000 12.0000000000000000 167
4.4872864490639595  -10.8782151115155798 118.4412448654021262 0.0000000000000000 12.0000000000000000 168
4.5138266149914736  -10.8810330634816470 118.5018547453293820 0.0000000000000000 12.0000000000000000 169
4.5403659240269985  -10.8838322040887157 118.5620958095723978 0.0000000000000000 12.0000000000000000 170
4.5669043563595606  -10.8866131877174173 118.6219805669400813 0.0000000000000000 12.0000000000000000 171
4.5934418935654566  -10.8893766310354110 118.6815207819090148 0.0000000000000000 12.0000000000000000 172
4.6199785185758122  -10.8921231146027981 118.7407275058564409 0.0000000000000000 12.0000000000000000 173
4.6465142156447978  -10.8948531844119127 118.7996111070602581 0.0000000000000000 12.0000000000000000 174
4.6730489703184945  -10.8975673533644795 118.8581812995227978 0.0000000000000000 12.0000000000000000 175
4.6995827694043637  -10.9002661026892156 118.9164471706728818 0.0000000000000000 12.0000000000000000 176
4.7261156009412790  -10.9029498833027798 118.9744172079991245 0.0000000000000000 12.0000000000000000 177
4.7526474541701091  -10.9056191171165899 119.0320993246616865 0.0000000000000000 12.0000000000000000 178
4.7791783195048136  -10.9082741982922258 119.0895008841313540 0.0000000000000000 12.0000000000000000 179
4.8057081885040223  -10.9109154944476607 119.1466287238978339 0.0000000000000000 12.0000000000000000 180
4.8322370538430786  -10.9135433478167982 119.2034891782906953 0.0000000000000000 12.0000000000000000 181
4.8587649092865126  -10.9161580763642512 119.2600881004519238 0.0000000000000000 12.0000000000000000 182
4.8852917496609427  -10.9187599748575401 119.3164308834976595 0.0000000000000000 12.0000000000000000 183
4.9118175708283554  -10.9213493158986523 119.3725224809048626 0.0000000000000000 12.0000000000000000 184
4.9383423696597708  -10.9239263509166697 119.4283674261564698 0.0000000000000000 12.0000000000000000 185
4.9648661440092585  -10.9264913111233177 119.4839698516771733 0.0000000000000000 12.0000000000000000 186
4.9913888926882866  -10.9290444084330289 119.5393335070898644 0.0000000000000000 12.0000000000000000 187
5.0179106154404103  -10.9315858363490115 119.5944617768211913 0.0000000000000000 12.0000000000000000 188
5.0444313129162479  -10.9341157708169039 119.6493576970843264 0.0000000000000000 12.0000000000000000 189
5.0709509866487652  -10.9366343710472869 119.7040239722632720 0.0000000000000000 12.0000000000000000 190
5.0974696390288416  -10.9391417803084288 119.7584629907238138 0.0000000000000000 12.0000000000000000 191
5.1239872732811023  -10.9416381266905010 119.8126768400742606 0.0000000000000000 12.0000000000000000 192
