 # inv_tmp, energy, phys_var, phys_doublon, phys_num, step_i
0.0309116978497523  -0.7004253768617974 6.4171785163027755 0.0000000000000000 12.0000000000000000 1
0.0616484498002454  -0.8840321688685457 6.7761583265662511 0.0000000000000000 12.0000000000000000 2
0.0922095627101750  -1.0691731275060041 7.2002705167020196 0.0000000000000000 12.0000000000000000 3
0.1225947279051662  -1.2556609627490569 7.6903254766114539 0.0000000000000000 12.0000000000000000 4
0.1528040356390983  -1.4432977386709700 8.2468739446406989 0.0000000000000000 12.0000000000000000 5
0.1828379847077839  -1.6318763258011804 8.8701984016207795 0.0000000000000000 12.0000000000000000 6
0.2126974864001000  -1.8211821726230630 9.5603092227447100 0.0000000000000000 12.0000000000000000 7
0.2423838620850216  -2.0109953788410211 10.3169459463182243 0.0000000000000000 12.0000000000000000 8
0.2718988339130171  -2.2010930350600928 11.1395838385182131 0.0000000000000000 12.0000000000000000 9
0.3012445083510744  -2.3912517757559781 12.0274457234193637 0.0000000000000000 12.0000000000000000 10
0.3304233525601063  -2.5812504762297310 12.9795188182931565 0.0000000000000000 12.0000000000000000 11
0.3594381639441616  -2.7708730109370965 13.9945760787547577 0.0000000000000000 12.0000000000000000 12
0.3882920335314811  -2.9599109812589712 15.0712013315036053 0.0000000000000000 12.0000000000000000 13
0.4169883041650934  -3.1481663162290472 16.2078172692096736 0.0000000000000000 12.0000000000000000 14
0.4455305247629860  -3.3354536503631045 17.4027152164831023 0.0000000000000000 12.0000000000000000 15
0.4739224021353466  -3.5216023885302210 18.6540854594352155 0.0000000000000000 12.0000000000000000 16
0.5021677520038155  -3.7064583783581382 19.9600468723883289 0.0000000000000000 12.0000000000000000 17
0.5302704509456221  -3.8898851252258662 21.3186745782248650 0.0000000000000000 12.0000000000000000 18
0.5582343909803668  -4.0717645024784428 22.7280244440552472 0.0000000000000000 12.0000000000000000 19
0.5860634384312253  -4.2519969289877615 24.1861533379392597 0.0000000000000000 12.0000000000000000 20
0.6137613985324789  -4.4305010064549553 25.6911342487754624 0.0000000000000000 12.0000000000000000 21
0.6413319870320140  -4.6072126288683091 27.2410655912823643 0.0000000000000000 12.0000000000000000 22
0.6687788097634919  -4.7820835954230017 28.8340742708530655 0.0000000000000000 12.0000000000000000 23
0.6961053508517698  -4.9550797753043296 30.4683123578872710 0.0000000000000000 12.0000000000000000 24
0.7233149698802248  -5.1261788875731416 32.1419475068170328 0.0000000000000000 12.0000000000000000 25
0.7504109080023990  -5.2953679716949988 33.8531475405626168 0.0000000000000000 12.0000000000000000 26
0.7773963026342761  -5.4626406338906284 35.6000598961526862 0.0000000000000000 12.0000000000000000 27
0.8042742100279598  -5.6279941614107099 37.3807868817304367 0.0000000000000000 12.0000000000000000 28
0.8310476347123466  -5.7914266010464575 39.1933579194963073 0.0000000000000000 12.0000000000000000 29
0.8577195645011558  -5.9529338996663892 41.0357001339138066 0.0000000000000000 12.0000000000000000 30
0.8842930095231442  -6.1125072032781960 42.9056087806275457 0.0000000000000000 12.0000000000000000 31
0.9107710435335006  -6.2701304069796207 44.8007190904294106 0.0000000000000000 12.0000000000000000 32
0.9371568456295047  -6.4257780410990248 46.7184811166715264 0.0000000000000000 12.0000000000000000 33
0.9634537404272312  -6.5794135687783761 48.6561391178773306 0.0000000000000000 12.0000000000000000 34
0.9896652347678908  -6.7309881572401826 50.6107168766267392 0.0000000000000000 12.0000000000000000 35
1.0157950491182568  -6.8804399691634073 52.5790101512890047 0.0000000000000000 12.0000000000000000 36
1.0418471420118385  -7.0276940023118488 54.5575871833788497 0.0000000000000000 12.0000000000000000 37
1.0678257261434125  -7.1726624853697913 56.5427978496685455 0.0000000000000000 12.0000000000000000 38
1.0937352750709826  -7.3152458166240084 58.5307916691843104 0.0000000000000000 12.0000000000000000 39
1.1195805198819315  -7.4553340106673414 60.5175444699473530 0.0000000000000000 12.0000000000000000 40
1.1453664356242463  -7.5928085978077853 62.4988931114727322 0.0000000000000000 12.0000000000000000 41
1.1710982177649198  -7.7275449025247491 64.4705772712772927 0.0000000000000000 12.0000000000000000 42
1.1967812493888654  -7.8594146122491297 66.4282869615995821 0.0000000000000000 12.0000000000000000 43
1.2224210602654355  -7.9882885369234069 68.3677141685543859 0.0000000000000000 12.0000000000000000 44
1.2480232792603558  -8.1140394539264786 70.2846068179644732 0.0000000000000000 12.0000000000000000 45
1.2735935818374373  -8.2365449323871971 72.1748231818514938 0.0000000000000000 12.0000000000000000 46
1.2991376345620633  -8.3556900356344563 74.0343848513519447 0.0000000000000000 12.0000000000000000 47
1.3246610385800399  -8.4713698101262622 75.8595265122160356 0.0000000000000000 12.0000000000000000 48
1.3501692740020073  -8.5834914829015077 77.6467409572712199 0.0000000000000000 12.0000000000000000 49
1.3756676469839417  -8.6919763063725615 79.3928180394211154 0.0000000000000000 12.0000000000000000 50
1.4011612410736158  -8.7967610079224237 81.0948765877397761 0.0000000000000000 12.0000000000000000 51
1.4266548741111320  -8.8977988210333727 82.7503886546995489 0.0000000000000000 12.0000000000000000 52
1.4521530616513607  -8.9950600933615323 84.3571958112957105 0.0000000000000000 12.0000000000000000 53
1.4776599875401644  -9.0885324842460982 85.9135175376001996 0.0000000000000000 12.0000000000000000 54
1.5031794819460591  -9.1782207787927312 87.4179520515102837 0.0000000000000000 12.0000000000000000 55
1.5287150068426465  -9.2641463573519900 88.8694701652052430 0.0000000000000000 12.0000000000000000 56
1.5542696486688421  -9.3463463676560661 90.2674029492033583 0.0000000000000000 12.0000000000000000 57
1.5798461176730274  -9.4248726520641597 91.6114241149744544 0.0000000000000000 12.0000000000000000 58
1.6054467532786323  -9.4997904844998580 92.9015281002603501 0.0000000000000000 12.0000000000000000 59
1.6310735346929619  -9.5711771711072196 94.1380048615505700 0.0000000000000000 12.0000000000000000 60
1.6567280959155299  -9.6391205658772705 95.3214123530415804 0.0000000000000000 12.0000000000000000 61
1.6824117442814208  -9.7037175480262494 96.4525476098268371 0.0000000000000000 12.0000000000000000 62
1.7081254816922520  -9.7650725022677598 97.5324172645205039 0.0000000000000000 12.0000000000000000 63
1.7338700277343164  -9.8232958368051619 98.5622082202442016 0.0000000000000000 12.0000000000000000 64
1.7596458439524978  -9.8785025673094360 99.5432590873109859 0.0000000000000000 12.0000000000000000 65
1.7854531586321079  -9.9308109886956490 100.4770328731951423 0.0000000000000000 12.0000000000000000 66
1.8112919915321912  -9.9803414504405694 101.3650913012508710 0.0000000000000000 12.0000000000000000 67
1.8371621781075309  -10.0272152456862642 102.2090710274290757 0.0000000000000000 12.0000000000000000 68
1.8630633928480718  -10.0715536195678741 103.0106619288720537 0.0000000000000000 12.0000000000000000 69
1.8889951714504667  -10.1134768981441390 103.7715875554369234 0.0000000000000000 12.0000000000000000 70
1.9149569316146964  -10.1531037360016594 104.4935877655937162 0.0000000000000000 12.0000000000000000 71
1.9409479923278001  -10.1905504780162772 105.1784035116431539 0.0000000000000000 12.0000000000000000 72
1.9669675915561564  -10.2259306288279213 105.8277636950922158 0.0000000000000000 12.0000000000000000 73
1.9930149023173576  -10.2593544222446749 106.4433739802083352 0.0000000000000000 12.0000000000000000 74
2.0190890471430443  -10.2909284819537312 107.0269074308983335 0.0000000000000000 12.0000000000000000 75
2.0451891109757336  -10.3207555644977695 107.5799968216907700 0.0000000000000000 12.0000000000000000 76
2.0713141525666323  -10.3489343753933269 108.1042284662871396 0.0000000000000000 12.0000000000000000 77
2.0974632144586418  -10.3755594494484775 108.6011374055208876 0.0000000000000000 12.0000000000000000 78
2.1236353316502403  -10.4007210867135775 109.0722037993599969 0.0000000000000000 12.0000000000000000 79
2.1498295390426456  -10.4245053360140432 109.5188503737001042 0.0000000000000000 12.0000000000000000 80
2.1760448777754942  -10.4469940186195984 109.9424407811635263 0.0000000000000000 12.0000000000000000 81
2.2022804005560799  -10.4682647852606223 110.3442787451373590 0.0000000000000000 12.0000000000000000 82
2.2285351760846694  -10.4883912003788371 110.7256078672096038 0.0000000000000000 12.0000000000000000 83
2.2548082926741189  -10.5074428481714683 111.0876119894590772 0.0000000000000000 12.0000000000000000 84
2.2810988611565985  -10.5254854556386626 111.4314160143432559 0.0000000000000000 12.0000000000000000 85
2.3074060171639532  -10.5425810284599386 111.7580870958878734 0.0000000000000000 12.0000000000000000 86
2.3337289228615639  -10.5587879960990794 112.0686361263202144 0.0000000000000000 12.0000000000000000 87
2.3600667682087195  -10.5741613630631459 112.3640194520494902 0.0000000000000000 12.0000000000000000 88
2.3864187718116887  -10.5887528637182200 112.6451407619020983 0.0000000000000000 12.0000000000000000 89
2.4127841814290525  -10.6026111184917422 112.9128530987275951 0.0000000000000000 12.0000000000000000 90
2.4391622741825412  -10.6157817896701125 113.1679609528842434 0.0000000000000000 12.0000000000000000 91
2.4655523565206470  -10.6283077353336921 113.4112224027259117 0.0000000000000000 12.0000000000000000 92
2.4919537639767428  -10.6402291602613772 113.6433512730577888 0.0000000000000000 12.0000000000000000 93
2.5183658607583617  -10.6515837628878494 113.8650192876692557 0.0000000000000000 12.0000000000000000 94
2.5447880391995992  -10.6624068776116427 114.0768581965333510 0.0000000000000000 12.0000000000000000 95
2.5712197191044281  -10.6727316119350490 114.2794618621411615 0.0000000000000000 12.0000000000000000 96
2.5976603470048953  -10.6825889780710330 114.4733882927747430 0.0000000000000000 12.0000000000000000 97
2.6241093953548043  -10.6920080187811557 114.6591616133698750 0.0000000000000000 12.0000000000000000 98
2.6505663616764594  -10.7010159273155399 114.8372739670356424 0.0000000000000000 12.0000000000000000 99
2.6770307676754181  -10.7096381614129346 115.0081873423267638 0.0000000000000000 12.0000000000000000 100
2.7035021583358141  -10.7178985513902774 115.1723353230655107 0.0000000000000000 12.0000000000000000 101
2.7299801010067970  -10.7258194024074598 115.3301247589127740 0.0000000000000000 12.0000000000000000 102
2.7564641844888431  -10.7334215910374731 115.4819373560415841 0.0000000000000000 12.0000000000000000 103
2.7829540181271124  -10.7407246563063836 115.6281311882023743 0.0000000000000000 12.0000000000000000 104
2.8094492309177230  -10.7477468853929956 115.7690421292183487 0.0000000000000000 12.0000000000000000 105
2.8359494706316273  -10.7545053941962578 115.9049852085402961 0.0000000000000000 12.0000000000000000 106
2.8624544029597949  -10.7610162029909411 116.0362558919488691 0.0000000000000000 12.0000000000000000 107
2.8889637106825723  -10.7672943073992080 116.1631312898346096 0.0000000000000000 12.0000000000000000 108
2.9154770928653466  -10.7733537449091816 116.2858712957379907 0.0000000000000000 12.0000000000000000 109
2.9419942640820547  -10.7792076571716997 116.4047196580035717 0.0000000000000000 12.0000000000000000 110
2.9685149536675608  -10.7848683483039078 116.5199049875078003 0.0000000000000000 12.0000000000000000 111
2.9950389049994963  -10.7903473394238532 116.6316417044774596 0.0000000000000000 12.0000000000000000 112
3.0215658748098102  -10.7956554196341568 116.7401309274231380 0.0000000000000000 12.0000000000000000 113
3.0480956325259756  -10.8008026936658101 116.8455613071951547 0.0000000000000000 12.0000000000000000 114
3.0746279596415769  -10.8057986263847372 116.9481098091126228 0.0000000000000000 12.0000000000000000 115
3.1011626491157922  -10.8106520843555778 117.0479424460522466 0.0000000000000000 12.0000000000000000 116
3.1276995048011500  -10.8153713746477855 117.1452149652917996 0.0000000000000000 12.0000000000000000 117
3.1542383408988126  -10.8199642810602796 117.2400734918070100 0.0000000000000000 12.0000000000000000 118
3.1807789814405512  -10.8244380979314574 117.3326551306120535 0.0000000000000000 12.0000000000000000 119
3.2073212597965055  -10.8287996616925231 117.4230885306240708 0.0000000000000000 12.0000000000000000 120
3.2338650182077875  -10.8330553803129135 117.5114944124131284 0.0000000000000000 12.0000000000000000 121
3.2604101073429423  -10.8372112607781013 117.5979860620862638 0.0000000000000000 12.0000000000000000 122
3.2869563858772821  -10.8412729347314123 117.6826697934342576 0.0000000000000000 12.0000000000000000 123
3.3135037200940824  -10.8452456824036236 117.7656453803583076 0.0000000000000000 12.0000000000000000 124
3.3400519835066653  -10.8491344549461495 117.8470064614785144 0.0000000000000000 12.0000000000000000 125
3.3666010565003646  -10.8529438952763790 117.9268409187197193 0.0000000000000000 12.0000000000000000 126
3.3931508259934344  -10.8566783575365502 118.0052312315621066 0.0000000000000000 12.0000000000000000 127
3.4197011851159451  -10.8603419252610198 118.0822548085450308 0.0000000000000000 12.0000000000000000 128
3.4462520329057651  -10.8639384283403686 118.1579842975124564 0.0000000000000000 12.0000000000000000 129
3.4728032740207309  -10.8674714588649906 118.2324878759997944 0.0000000000000000 12.0000000000000000 130
3.4993548184661787  -10.8709443859250143 118.3058295230696615 0.0000000000000000 12.0000000000000000 131
3.5259065813369830  -10.8743603694384419 118.3780692738232716 0.0000000000000000 12.0000000000000000 132
3.5524584825733543  -10.8777223730741746 118.4492634577345598 0.0000000000000000 12.0000000000000000 133
3.5790104467296149  -10.8810331763322523 118.5194649218789777 0.0000000000000000 12.0000000000000000 134
3.6055624027552535  -10.8842953858390583 118.5887232400581581 0.0000000000000000 12.0000000000000000 135
3.6321142837875624  -10.8875114459115672 118.6570849087582786 0.0000000000000000 12.0000000000000000 136
3.6586660269552169  -10.8906836484405396 118.7245935308134932 0.0000000000000000 12.0000000000000000 137
3.6852175731921659  -10.8938141421393713 118.7912899875906589 0.0000000000000000 12.0000000000000000 138
3.7117688670612585  -10.8969049412019636 118.8572126004565064 0.0000000000000000 12.0000000000000000 139
3.7383198565870401  -10.8999579334098371 118.9223972822356075 0.0000000000000000 12.0000000000000000 140
3.7648704930971988  -10.9029748877259820 118.9868776793210401 0.0000000000000000 12.0000000000000000 141
3.7914207310721535  -10.9059574614103418 119.0506853050551683 0.0000000000000000 12.0000000000000000 142
3.8179705280023222  -10.9089072066891628 119.1138496649535483 0.0000000000000000 12.0000000000000000 143
3.8445198442526207  -10.9118255770084378 119.1763983743100539 0.0000000000000000 12.0000000000000000 144
3.8710686429337642  -10.9147139328993887 119.2383572686810282 0.0000000000000000 12.0000000000000000 145
3.8976168897799872  -10.9175735474819326 119.2997505077137532 0.0000000000000000 12.0000000000000000 146
3.9241645530328024  -10.9204056116304269 119.3606006727540318 0.0000000000000000 12.0000000000000000 147
3.9507116033304408  -10.9232112388240736 119.4209288586358184 0.0000000000000000 12.0000000000000000 148
3.9772580136026527  -10.9259914697029412 119.4807547600296118 0.0000000000000000 12.0000000000000000 149
4.0038037589705402  -10.9287472763490570 119.5400967527013307 0.0000000000000000 12.0000000000000000 150
4.0303488166511530  -10.9314795663105926 119.5989719700072271 0.0000000000000000 12.0000000000000000 151
4.0568931658665406  -10.9341891863860425 119.6573963749311673 0.0000000000000000 12.0000000000000000 152
4.0834367877570239  -10.9368769261839471 119.7153848279467638 0.0000000000000000 12.0000000000000000 153
4.1099796652984315  -10.9395435214728032 119.7729511509703570 0.0000000000000000 12.0000000000000000 154
4.1365217832230776  -10.9421896573346480 119.8301081876505805 0.0000000000000000 12.0000000000000000 155
4.1630631279442598  -10.9448159711349575 119.8868678602258200 0.0000000000000000 12.0000000000000000 156
4.1896036874840732  -10.9474230553205913 119.9432412231626870 0.0000000000000000 12.0000000000000000 157
4.2161434514043652  -10.9500114600566576 119.9992385137763620 0.0000000000000000 12.0000000000000000 158
4.2426824107406302  -10.9525816957126167 120.0548692000197946 0.0000000000000000 12.0000000000000000 159
4.2692205579387004  -10.9551342352068559 120.1101420256145360 0.0000000000000000 12.0000000000000000 160
4.2957578867940613  -10.9576695162188749 120.1650650526869697 0.0000000000000000 12.0000000000000000 161
4.3222943923936450  -10.9601879432770275 120.2196457020608307 0.0000000000000000 12.0000000000000000 162
4.3488300710599761  -10.9626898897296581 120.2738907913465027 0.0000000000000000 12.0000000000000000 163
4.3753649202975282  -10.9651756996067302 120.3278065709617408 0.0000000000000000 12.0000000000000000 164
4.4018989387411738  -10.9676456893785996 120.3813987582037583 0.0000000000000000 12.0000000000000000 165
4.4284321261066220  -10.9701001496181725 120.4346725694905729 0.0000000000000000 12.0000000000000000 166
4.4549644831427280  -10.9725393465722387 120.4876327508774665 0.0000000000000000 12.0000000000000000 167
4.4814960115855778  -10.9749635236474035 120.5402836069498278 0.0000000000000000 12.0000000000000000 168
4.5080267141142665  -10.9773729028156382 120.5926290281858400 0.0000000000000000 12.0000000000000000 169
4.5345565943082633  -10.9797676859442213 120.6446725168772360 0.0000000000000000 12.0000000000000000 170
4.5610856566063029  -10.9821480560544309 120.6964172116895213 0.0000000000000000 12.0000000000000000 171
4.5876139062667107  -10.9845141785130984 120.7478659109393533 0.0000000000000000 12.0000000000000000 172
4.6141413493291061  -10.9868662021609467 120.7990210946600769 0.0000000000000000 12.0000000000000000 173
4.6406679925774021  -10.9892042603811984 120.8498849455229447 0.0000000000000000 12.0000000000000000 174
4.6671938435040570  -10.9915284721119253 120.9004593686771614 0.0000000000000000 12.0000000000000000 175
4.6937189102755017  -10.9938389428051870 120.9507460105672578 0.0000000000000000 12.0000000000000000 176
4.7202432016987013  -10.9961357653359784 121.0007462767833033 0.0000000000000000 12.0000000000000000 177
4.7467667271888070  -10.9984190208637145 121.0504613489957109 0.0000000000000000 12.0000000000000000 178
4.7732894967378217  -11.0006887796488471 121.0998922010232803 0.0000000000000000 12.0000000000000000 179
4.7998115208842762  -11.0029451018269704 121.1490396140790011 0.0000000000000000 12.0000000000000000 180
4.8263328106838443  -11.0051880381428049 121.1979041912381660 0.0000000000000000 12.0000000000000000 181
4.8528533776808649  -11.0074176306460618 121.2464863711670375 0.0000000000000000 12.0000000000000000 182
4.8793732338807523  -11.0096339133512338 121.2947864411506913 0.0000000000000000 12.0000000000000000 183
4.9058923917232358  -11.0118369128632487 121.3428045494553231 0.0000000000000000 12.0000000000000000 184
4.9324108640564157  -11.0140266489705869 121.3905407170581014 0.0000000000000000 12.0000000000000000 185
4.9589286641116015  -11.0162031352076930 121.4379948487758156 0.0000000000000000 12.0000000000000000 186
4.9854458054789035  -11.0183663793880999 121.4851667438221483 0.0000000000000000 12.0000000000000000 187
5.0119623020835560  -11.0205163841097900 121.5320561058204447 0.0000000000000000 12.0000000000000000 188
5.0384781681629409  -11.0226531472341485 121.5786625522991073 0.0000000000000000 12.0000000000000000 189
5.0649934182443026  -11.0247766623398302 121.6249856236938172 0.0000000000000000 12.0000000000000000 190
5.0915080671231179  -11.0268869191527177 121.6710247918795744 0.0000000000000000 12.0000000000000000 191
5.1180221298421165  -11.0289839039531170 121.7167794682544439 0.0000000000000000 12.0000000000000000 192
