 # inv_tmp, energy, phys_var, phys_doublon, phys_num, step_i
0.0309148704562466  -0.6937855628595020 6.5038492365325231 0.0000000000000000 12.0000000000000000 1
0.0616518044883405  -0.8805016040766949 6.8829341761289449 0.0000000000000000 12.0000000000000000 2
0.0922094239891114  -1.0692710184212051 7.3320611482684592 0.0000000000000000 12.0000000000000000 3
0.1225866725393362  -1.2599490163412268 7.8529336556160292 0.0000000000000000 12.0000000000000000 4
0.1527828213799532  -1.4523846966482927 8.4470717094635184 0.0000000000000000 12.0000000000000000 5
0.1827974718630291  -1.6464221178707144 9.1157925031996356 0.0000000000000000 12.0000000000000000 6
0.2126305552019911  -1.8419011637368992 9.8601913249832869 0.0000000000000000 12.0000000000000000 7
0.2422823304787929  -2.0386581571225566 10.6811223298901901 0.0000000000000000 12.0000000000000000 8
0.2717533819515570  -2.2365261868523789 11.5791788223559671 0.0000000000000000 12.0000000000000000 9
0.3010446167231058  -2.4353351264060654 12.5546727914770742 0.0000000000000000 12.0000000000000000 10
0.3301572637636397  -2.6349113425832309 13.6076135970776999 0.0000000000000000 12.0000000000000000 11
0.3590928751200130  -2.8350771147406428 14.7376859195804464 0.0000000000000000 12.0000000000000000 12
0.3878533298878695  -3.0356498099855047 15.9442273506369006 0.0000000000000000 12.0000000000000000 13
0.4164408411794965  -3.2364408848441704 17.2262062957513180 0.0000000000000000 12.0000000000000000 14
0.4448579659087570  -3.4372548071965494 18.5822011594847361 0.0000000000000000 12.0000000000000000 15
0.4731076167647208  -3.6378880112466874 20.0103820576753790 0.0000000000000000 12.0000000000000000 16
0.5011930752965575  -3.8381280106116611 21.5084965161082522 0.0000000000000000 12.0000000000000000 17
0.5291180046286211  -4.0377527982019519 23.0738607384880225 0.0000000000000000 12.0000000000000000 18
0.5568864600125866  -4.2365306549940858 24.7033580302819047 0.0000000000000000 12.0000000000000000 19
0.5845028952450527  -4.4342204724751779 26.3934458295342580 0.0000000000000000 12.0000000000000000 20
0.6119721629666048  -4.6305726659203179 28.1401725139591861 0.0000000000000000 12.0000000000000000 21
0.6392995070295973  -4.8253307193039383 29.9392047332174371 0.0000000000000000 12.0000000000000000 22
0.6664905454761120  -5.0182333601440527 31.7858654798342783 0.0000000000000000 12.0000000000000000 23
0.6935512431839534  -5.2090173173675156 33.6751825000056897 0.0000000000000000 12.0000000000000000 24
0.7204878738775404  -5.3974205712980243 35.6019460063708664 0.0000000000000000 12.0000000000000000 25
0.7473069719073533  -5.5831859661101220 37.5607740449046474 0.0000000000000000 12.0000000000000000 26
0.7740152749122163  -5.7660650251693237 39.5461833436263177 0.0000000000000000 12.0000000000000000 27
0.8006196591275104  -5.9458217913697009 41.5526630813392615 0.0000000000000000 12.0000000000000000 28
0.8271270696299359  -6.1222365094999516 43.5747487968159888 0.0000000000000000 12.0000000000000000 29
0.8535444481693757  -6.2951089760866408 45.6070936322127025 0.0000000000000000 12.0000000000000000 30
0.8798786614026911  -6.4642614029989076 47.6445342691826426 0.0000000000000000 12.0000000000000000 31
0.9061364323055718  -6.6295406721022374 49.6821492535210893 0.0000000000000000 12.0000000000000000 32
0.9323242773097922  -6.7908198963154938 51.7153078797571695 0.0000000000000000 12.0000000000000000 33
0.9584484513246452  -6.9479992440063736 53.7397083755011096 0.0000000000000000 12.0000000000000000 34
0.9845149022954923  -7.1010060251888323 55.7514047360532743 0.0000000000000000 12.0000000000000000 35
1.0105292363783556  -7.2497940762618756 57.7468221630953948 0.0000000000000000 12.0000000000000000 36
1.0364966942167835  -7.3943425125125168 59.7227616134734234 0.0000000000000000 12.0000000000000000 37
1.0624221382408163  -7.5346539425868881 61.6763944310475551 0.0000000000000000 12.0000000000000000 38
1.0883100504042400  -7.6707522557820891 63.6052483939196520 0.0000000000000000 12.0000000000000000 39
1.1141645393615027  -7.8026801013123297 65.5071867506544692 0.0000000000000000 12.0000000000000000 40
1.1399893557745449  -7.9304961793144226 67.3803819429528090 0.0000000000000000 12.0000000000000000 41
1.1657879142369321  -8.0542724574240445 69.2232857280990146 0.0000000000000000 12.0000000000000000 42
1.1915633202039437  -8.1740914157046713 71.0345973382276554 0.0000000000000000 12.0000000000000000 43
1.2173184003119428  -8.2900434080760199 72.8132311645891122 0.0000000000000000 12.0000000000000000 44
1.2430557345435773  -8.4022242116489068 74.5582852544045380 0.0000000000000000 12.0000000000000000 45
1.2687776888299924  -8.5107328178493553 76.2690116758200531 0.0000000000000000 12.0000000000000000 46
1.2944864468598882  -8.6156695020031471 77.9447895611009614 0.0000000000000000 12.0000000000000000 47
1.3201840400713623  -8.7171341919954823 79.5851013948718276 0.0000000000000000 12.0000000000000000 48
1.3458723750213863  -8.8152251423116912 81.1895128849637189 0.0000000000000000 12.0000000000000000 49
1.3715532575470117  -8.9100379075672755 82.7576565470584740 0.0000000000000000 12.0000000000000000 50
1.3972284133421202  -9.0016645997197227 84.2892189565686749 0.0000000000000000 12.0000000000000000 51
1.4228995047661830  -9.0901934055348015 85.7839314751612392 0.0000000000000000 12.0000000000000000 52
1.4485681438718336  -9.1757083354572764 87.2415641459478479 0.0000000000000000 12.0000000000000000 53
1.4742359017828042  -9.2582891716276912 88.6619223698189671 0.0000000000000000 12.0000000000000000 54
1.4999043146713360  -9.3380115811611386 90.0448459236137495 0.0000000000000000 12.0000000000000000 55
1.5255748866743002  -9.4149473607002498 91.3902098557967122 0.0000000000000000 12.0000000000000000 56
1.5512490901509242  -9.4891647794028486 92.6979267934907654 0.0000000000000000 12.0000000000000000 57
1.5769283637239020  -9.5607289896587631 93.9679502122040731 0.0000000000000000 12.0000000000000000 58
1.6026141085622738  -9.6297024776971032 95.2002782524103139 0.0000000000000000 12.0000000000000000 59
1.6283076833615884  -9.6961455296113783 96.3949577113855014 0.0000000000000000 12.0000000000000000 60
1.6540103984577192  -9.7601166919862266 97.5520878906862094 0.0000000000000000 12.0000000000000000 61
1.6797235094785015  -9.8216732100736515 98.6718240359900420 0.0000000000000000 12.0000000000000000 62
1.7054482108953870  -9.8808714301843441 99.7543801637367835 0.0000000000000000 12.0000000000000000 63
1.7311856297886372  -9.9377671565051635 100.8000311255678980 0.0000000000000000 12.0000000000000000 64
1.7569368200871309  -9.9924159558298520 101.8091138149047765 0.0000000000000000 12.0000000000000000 65
1.7827027574901455  -10.0448734066254879 102.7820274685484208 0.0000000000000000 12.0000000000000000 66
1.8084843352257345  -10.0951952914063501 103.7192330588056421 0.0000000000000000 12.0000000000000000 67
1.8342823607503591  -10.1434377335263655 104.6212518076705038 0.0000000000000000 12.0000000000000000 68
1.8600975534485904  -10.1896572812271344 105.4886628837165290 0.0000000000000000 12.0000000000000000 69
1.8859305433510556  -10.2339109431029467 106.3221003646263085 0.0000000000000000 12.0000000000000000 70
1.9117818708538850  -10.2762561800926786 107.1222495640237611 0.0000000000000000 12.0000000000000000 71
1.9376519873940969  -10.3167508597156523 107.8898428309931745 0.0000000000000000 12.0000000000000000 72
1.9635412570125614  -10.3554531785761146 108.6256549350652989 0.0000000000000000 12.0000000000000000 73
1.9894499587192154  -10.3924215592136129 109.3304981492736658 0.0000000000000000 12.0000000000000000 74
2.0153782895636403  -10.4277145272202230 110.0052171399589156 0.0000000000000000 12.0000000000000000 75
2.0413263683073564  -10.4613905742258098 110.6506837651298696 0.0000000000000000 12.0000000000000000 76
2.0672942395916905  -10.4935080119104924 111.2677918741383110 0.0000000000000000 12.0000000000000000 77
2.0932818784960729  -10.5241248216789778 111.8574521909180390 0.0000000000000000 12.0000000000000000 78
2.1192891953855200  -10.5532985040572473 112.4205873516821015 0.0000000000000000 12.0000000000000000 79
2.1453160409521503  -10.5810859312773271 112.9581271563179712 0.0000000000000000 12.0000000000000000 80
2.1713622113633204  -10.6075432059241717 113.4710040812019542 0.0000000000000000 12.0000000000000000 81
2.1974274534377654  -10.6327255279486952 113.9601490901227692 0.0000000000000000 12.0000000000000000 82
2.2235114697805374  -10.6566870718163358 114.4264877697189320 0.0000000000000000 12.0000000000000000 83
2.2496139238171882  -10.6794808750713983 114.8709368064788237 0.0000000000000000 12.0000000000000000 84
2.2757344446771310  -10.7011587391597853 115.2944008140371324 0.0000000000000000 12.0000000000000000 85
2.3018726318853271  -10.7217711429693665 115.6977695122787395 0.0000000000000000 12.0000000000000000 86
2.3280280598300065  -10.7413671692193979 116.0819152536400765 0.0000000000000000 12.0000000000000000 87
2.3542002819821057  -10.7599944435559056 116.4476908869422118 0.0000000000000000 12.0000000000000000 88
2.3803888348492519  -10.7776990859867716 116.7959279450447525 0.0000000000000000 12.0000000000000000 89
2.4065932416534817  -10.7945256741137534 117.1274351394896343 0.0000000000000000 12.0000000000000000 90
2.4328130157274472  -10.8105172174850868 117.4429971430227511 0.0000000000000000 12.0000000000000000 91
2.4590476636285614  -10.8257151422963069 117.7433736393394099 0.0000000000000000 12.0000000000000000 92
2.4852966879745644  -10.8401592856038143 118.0292986184955168 0.0000000000000000 12.0000000000000000 93
2.5115595900072147  -10.8538878981803997 118.3014798960656577 0.0000000000000000 12.0000000000000000 94
2.5378358718934440  -10.8669376551304122 118.5605988342186379 0.0000000000000000 12.0000000000000000 95
2.5641250387753214  -10.8793436733893110 118.8073102433357064 0.0000000000000000 12.0000000000000000 96
2.5904266005816918  -10.8911395352550855 119.0422424435357129 0.0000000000000000 12.0000000000000000 97
2.6167400736153694  -10.9023573171332622 119.2659974664329638 0.0000000000000000 12.0000000000000000 98
2.6430649819304421  -10.9130276227203176 119.4791513785692985 0.0000000000000000 12.0000000000000000 99
2.6694008585145537  -10.9231796198995550 119.6822547091873901 0.0000000000000000 12.0000000000000000 100
2.6957472462910692  -10.9328410806765071 119.8758329662958459 0.0000000000000000 12.0000000000000000 101
2.7221036989558551  -10.9420384235363066 120.0603872262937699 0.0000000000000000 12.0000000000000000 102
2.7484697816630410  -10.9507967576611733 120.2363947837289686 0.0000000000000000 12.0000000000000000 103
2.7748450715736270  -10.9591399285013953 120.4043098490527797 0.0000000000000000 12.0000000000000000 104
2.8012291582801847  -10.9670905642470036 120.5645642834724072 0.0000000000000000 12.0000000000000000 105
2.8276216441202351  -10.9746701227985781 120.7175683611876877 0.0000000000000000 12.0000000000000000 106
2.8540221443901386  -10.9818989388845658 120.8637115504160420 0.0000000000000000 12.0000000000000000 107
2.8804302874705603  -10.9887962710181171 121.0033633056557818 0.0000000000000000 12.0000000000000000 108
2.9068457148738269  -10.9953803480286929 121.1368738646056329 0.0000000000000000 12.0000000000000000 109
2.9332680812226890  -11.0016684149429214 121.2645750440514973 0.0000000000000000 12.0000000000000000 110
2.9596970541692689  -11.0076767780245692 121.3867810298462331 0.0000000000000000 12.0000000000000000 111
2.9861323142622078  -11.0134208488160450 121.5037891568484270 0.0000000000000000 12.0000000000000000 112
3.0125735547693546  -11.0189151870526700 121.6158806753547026 0.0000000000000000 12.0000000000000000 113
3.0390204814626367  -11.0241735423470715 121.7233215011570167 0.0000000000000000 12.0000000000000000 114
3.0654728123711195  -11.0292088945642170 121.8263629468945055 0.0000000000000000 12.0000000000000000 115
3.0919302775076840  -11.0340334928278274 121.9252424328396103 0.0000000000000000 12.0000000000000000 116
3.1183926185741613  -11.0386588931168728 122.0201841756787928 0.0000000000000000 12.0000000000000000 117
3.1448595886492736  -11.0430959944264835 122.1113998542133885 0.0000000000000000 12.0000000000000000 118
3.1713309518632320  -11.0473550734808619 122.1990892512260416 0.0000000000000000 12.0000000000000000 119
3.1978064830624144  -11.0514458179975215 122.2834408710346423 0.0000000000000000 12.0000000000000000 120
3.2242859674671296  -11.0553773585118975 122.3646325324941841 0.0000000000000000 12.0000000000000000 121
3.2507692003251187  -11.0591582987795238 122.4428319374085845 0.0000000000000000 12.0000000000000000 122
3.2772559865631026  -11.0627967447801083 122.5181972144896889 0.0000000000000000 12.0000000000000000 123
3.3037461404383799  -11.0663003323531477 122.5908774391414084 0.0000000000000000 12.0000000000000000 124
3.3302394851922053  -11.0696762534995923 122.6610131294707173 0.0000000000000000 12.0000000000000000 125
3.3567358527064401  -11.0729312813874223 122.7287367190212279 0.0000000000000000 12.0000000000000000 126
3.3832350831647351  -11.0760717941019102 122.7941730068084780 0.0000000000000000 12.0000000000000000 127
3.4097370247193042  -11.0791037971834214 122.8574395852956940 0.0000000000000000 12.0000000000000000 128
3.4362415331641896  -11.0820329449968007 122.9186472469973239 0.0000000000000000 12.0000000000000000 129
3.4627484716157402  -11.0848645609775875 122.9779003704341847 0.0000000000000000 12.0000000000000000 130
3.4892577102008984  -11.0876036568004075 123.0352972861872445 0.0000000000000000 12.0000000000000000 131
3.5157691257537618  -11.0902549505152290 123.0909306238137617 0.0000000000000000 12.0000000000000000 132
3.5422826015207809  -11.0928228836965985 123.1448876403957655 0.0000000000000000 12.0000000000000000 133
3.5687980268748634  -11.0953116376504823 123.1972505314919317 0.0000000000000000 12.0000000000000000 134
3.5953152970385527  -11.0977251487228319 123.2480967252608224 0.0000000000000000 12.0000000000000000 135
3.6218343128164050  -11.1000671227524457 123.2974991605106680 0.0000000000000000 12.0000000000000000 136
3.6483549803366069  -11.1023410487101355 123.3455265494205122 0.0000000000000000 12.0000000000000000 137
3.6748772108018191  -11.1045502115646855 123.3922436256605124 0.0000000000000000 12.0000000000000000 138
3.7014009202492080  -11.1066977044148025 123.4377113786189852 0.0000000000000000 12.0000000000000000 139
3.7279260293195566  -11.1087864399249554 123.4819872744253360 0.0000000000000000 12.0000000000000000 140
3.7544524630353440  -11.1108191611015457 123.5251254644336996 0.0000000000000000 12.0000000000000000 141
3.7809801505876259  -11.1127984514443376 123.5671769818102632 0.0000000000000000 12.0000000000000000 142
3.8075090251315529  -11.1147267445067826 123.6081899268429964 0.0000000000000000 12.0000000000000000 143
3.8340390235903223  -11.1166063328972413 123.6482096415675755 0.0000000000000000 12.0000000000000000 144
3.8605700864673582  -11.1184393767518745 123.6872788742806222 0.0000000000000000 12.0000000000000000 145
3.8871021576664941  -11.1202279117082696 123.7254379344832529 0.0000000000000000 12.0000000000000000 146
3.9136351843199346  -11.1219738564078394 123.7627248387788654 0.0000000000000000 12.0000000000000000 147
3.9401691166237516  -11.1236790195534034 123.7991754482205806 0.0000000000000000 12.0000000000000000 148
3.9667039076806780  -11.1253451065471349 123.8348235975830249 0.0000000000000000 12.0000000000000000 149
3.9932395133499523  -11.1269737257328210 123.8697012170088954 0.0000000000000000 12.0000000000000000 150
4.0197758921039792  -11.1285663942650910 123.9038384464596732 0.0000000000000000 12.0000000000000000 151
4.0463130048915454  -11.1301245436271401 123.9372637433778834 0.0000000000000000 12.0000000000000000 152
4.0728508150073663  -11.1316495248173002 123.9700039839471799 0.0000000000000000 12.0000000000000000 153
4.0993892879677167  -11.1331426132236899 124.0020845583160565 0.0000000000000000 12.0000000000000000 154
4.1259283913919047  -11.1346050132052312 124.0335294601343179 0.0000000000000000 12.0000000000000000 155
4.1524680948893726  -11.1360378623961722 124.0643613707287187 0.0000000000000000 12.0000000000000000 156
4.1790083699521823  -11.1374422357505143 124.0946017382311197 0.0000000000000000 12.0000000000000000 157
4.2055491898526753  -11.1388191493415381 124.1242708519512234 0.0000000000000000 12.0000000000000000 158
4.2320905295460891  -11.1401695639310869 124.1533879122737005 0.0000000000000000 12.0000000000000000 159
4.2586323655779141  -11.1414943883221689 124.1819710963410728 0.0000000000000000 12.0000000000000000 160
4.2851746759958056  -11.1427944825078509 124.2100376197710858 0.0000000000000000 12.0000000000000000 161
4.3117174402658298  -11.1440706606285644 124.2376037946421263 0.0000000000000000 12.0000000000000000 162
4.3382606391928693  -11.1453236937493152 124.2646850839682315 0.0000000000000000 12.0000000000000000 163
4.3648042548450139  -11.1465543124674902 124.2912961528703875 0.0000000000000000 12.0000000000000000 164
4.3913482704817195  -11.1477632093616243 124.3174509166430681 0.0000000000000000 12.0000000000000000 165
4.4178926704856210  -11.1489510412904842 124.3431625858984688 0.0000000000000000 12.0000000000000000 166
4.4444374402977758  -11.1501184315516255 124.3684437089639516 0.0000000000000000 12.0000000000000000 167
4.4709825663562288  -11.1512659719078275 124.3933062116977339 0.0000000000000000 12.0000000000000000 168
4.4975280360377132  -11.1523942244894450 124.4177614348761836 0.0000000000000000 12.0000000000000000 169
4.5240738376023559  -11.1535037235801031 124.4418201692987935 0.0000000000000000 12.0000000000000000 170
4.5506199601412431  -11.1545949772929340 124.4654926887492365 0.0000000000000000 12.0000000000000000 171
4.5771663935267100  -11.1556684691438015 124.4887887809392168 0.0000000000000000 12.0000000000000000 172
4.6037131283652339  -11.1567246595279617 124.5117177765593652 0.0000000000000000 12.0000000000000000 173
4.6302601559527909  -11.1577639871058949 124.5342885765490166 0.0000000000000000 12.0000000000000000 174
4.6568074682325724  -11.1587868701038975 124.5565096776941800 0.0000000000000000 12.0000000000000000 175
4.6833550577549410  -11.1597937075345648 124.5783891966542001 0.0000000000000000 12.0000000000000000 176
4.7099029176395231  -11.1607848803421366 124.5999348925118397 0.0000000000000000 12.0000000000000000 177
4.7364510415393228  -11.1617607524771891 124.6211541879373215 0.0000000000000000 12.0000000000000000 178
4.7629994236067716  -11.1627216719050644 124.6420541890499436 0.0000000000000000 12.0000000000000000 179
4.7895480584616088  -11.1636679715520160 124.6626417040556873 0.0000000000000000 12.0000000000000000 180
4.8160969411605157  -11.1645999701929384 124.6829232607368567 0.0000000000000000 12.0000000000000000 181
4.8426460671683920  -11.1655179732842349 124.7029051228623189 0.0000000000000000 12.0000000000000000 182
4.8691954323312263  -11.1664222737451411 124.7225933055844109 0.0000000000000000 12.0000000000000000 183
4.8957450328504510  -11.1673131526907206 124.7419935898847996 0.0000000000000000 12.0000000000000000 184
4.9222948652587268  -11.1681908801194822 124.7611115361268901 0.0000000000000000 12.0000000000000000 185
4.9488449263970740  -11.1690557155583718 124.7799524967696669 0.0000000000000000 12.0000000000000000 186
4.9753952133932877  -11.1699079086678008 124.7985216282942531 0.0000000000000000 12.0000000000000000 187
5.0019457236415770  -11.1707476998091018 124.8168239023905244 0.0000000000000000 12.0000000000000000 188
5.0284964547833475  -11.1715753205768280 124.8348641164513424 0.0000000000000000 12.0000000000000000 189
5.0550474046891001  -11.1723909942979276 124.8526469034140547 0.0000000000000000 12.0000000000000000 190
5.0815985714413445  -11.1731949364999821 124.8701767409917807 0.0000000000000000 12.0000000000000000 191
5.1081499533185291  -11.1739873553502314 124.8874579603302095 0.0000000000000000 12.0000000000000000 192
